# Temperatura_=_20.0
# Concentracion g/m^3_=_10000.0
# C_Vs_to_Am_M_A/Vsm_=_116720831517.84952
# pendiente_HvsI_1/m_=_3716.3
# ordenada_HvsI_A/m_=_1297.0
# frecuencia_Hz_=_268244.98319825303
# Promedio de 29 ciclos

Tiempo_(s)	Campo_(V.s)	Magnetizacion_(V.s)	Campo_(kA/m)	Magnetizacion_(A/m)
0.000000e+00	-4.508699e-10	-2.387449e-09	-2.913562e+01	-2.727732e+02
1.000000e-08	-4.507433e-10	-2.388753e-09	-2.912744e+01	-2.728598e+02
2.000000e-08	-4.504752e-10	-2.392345e-09	-2.911011e+01	-2.728380e+02
3.000000e-08	-4.500785e-10	-2.395906e-09	-2.908448e+01	-2.727215e+02
4.000000e-08	-4.495896e-10	-2.398481e-09	-2.905288e+01	-2.725384e+02
5.000000e-08	-4.489923e-10	-2.400215e-09	-2.901428e+01	-2.723262e+02
6.000000e-08	-4.482647e-10	-2.397731e-09	-2.896727e+01	-2.721252e+02
7.000000e-08	-4.474262e-10	-2.391378e-09	-2.891308e+01	-2.719700e+02
8.000000e-08	-4.464548e-10	-2.382080e-09	-2.885031e+01	-2.718820e+02
9.000000e-08	-4.452856e-10	-2.391409e-09	-2.877475e+01	-2.718636e+02
1.000000e-07	-4.438910e-10	-2.438043e-09	-2.868463e+01	-2.718960e+02
1.100000e-07	-4.423285e-10	-2.440867e-09	-2.858366e+01	-2.719418e+02
1.200000e-07	-4.407291e-10	-2.372418e-09	-2.848030e+01	-2.719499e+02
1.300000e-07	-4.391122e-10	-2.281800e-09	-2.837582e+01	-2.718650e+02
1.400000e-07	-4.373369e-10	-2.371587e-09	-2.826110e+01	-2.716371e+02
1.500000e-07	-4.353914e-10	-2.476727e-09	-2.813537e+01	-2.712306e+02
1.600000e-07	-4.333808e-10	-2.297596e-09	-2.800545e+01	-2.706314e+02
1.700000e-07	-4.312525e-10	-2.262678e-09	-2.786791e+01	-2.698492e+02
1.800000e-07	-4.289560e-10	-2.408474e-09	-2.771951e+01	-2.689161e+02
1.900000e-07	-4.265913e-10	-2.297093e-09	-2.756670e+01	-2.678803e+02
2.000000e-07	-4.241658e-10	-2.160583e-09	-2.740996e+01	-2.667978e+02
2.100000e-07	-4.216075e-10	-2.293895e-09	-2.724464e+01	-2.657214e+02
2.200000e-07	-4.189141e-10	-2.265500e-09	-2.707059e+01	-2.646918e+02
2.300000e-07	-4.160648e-10	-2.135720e-09	-2.688646e+01	-2.637304e+02
2.400000e-07	-4.130585e-10	-2.255760e-09	-2.669219e+01	-2.628361e+02
2.500000e-07	-4.099774e-10	-2.245814e-09	-2.649309e+01	-2.619867e+02
2.600000e-07	-4.068246e-10	-2.139853e-09	-2.628935e+01	-2.611443e+02
2.700000e-07	-4.035383e-10	-2.233220e-09	-2.607699e+01	-2.602633e+02
2.800000e-07	-4.001285e-10	-2.219992e-09	-2.585664e+01	-2.592999e+02
2.900000e-07	-3.966003e-10	-2.112534e-09	-2.562865e+01	-2.582204e+02
3.000000e-07	-3.929430e-10	-2.151981e-09	-2.539231e+01	-2.570073e+02
3.100000e-07	-3.891646e-10	-2.149238e-09	-2.514814e+01	-2.556618e+02
3.200000e-07	-3.852568e-10	-2.137004e-09	-2.489561e+01	-2.542023e+02
3.300000e-07	-3.812501e-10	-2.148448e-09	-2.463669e+01	-2.526591e+02
3.400000e-07	-3.771897e-10	-2.101470e-09	-2.437431e+01	-2.510680e+02
3.500000e-07	-3.730284e-10	-2.097705e-09	-2.410540e+01	-2.494614e+02
3.600000e-07	-3.687071e-10	-2.121436e-09	-2.382615e+01	-2.478621e+02
3.700000e-07	-3.642458e-10	-2.069179e-09	-2.353786e+01	-2.462787e+02
3.800000e-07	-3.596818e-10	-2.038206e-09	-2.324293e+01	-2.447041e+02
3.900000e-07	-3.550277e-10	-2.068193e-09	-2.294218e+01	-2.431183e+02
4.000000e-07	-3.502820e-10	-2.050310e-09	-2.263550e+01	-2.414926e+02
4.100000e-07	-3.454434e-10	-2.032570e-09	-2.232283e+01	-2.397968e+02
4.200000e-07	-3.405047e-10	-2.019845e-09	-2.200369e+01	-2.380050e+02
4.300000e-07	-3.354455e-10	-1.986578e-09	-2.167675e+01	-2.361017e+02
4.400000e-07	-3.302559e-10	-1.960210e-09	-2.134140e+01	-2.340839e+02
4.500000e-07	-3.249435e-10	-1.966200e-09	-2.099811e+01	-2.319613e+02
4.600000e-07	-3.195338e-10	-1.944931e-09	-2.064852e+01	-2.297539e+02
4.700000e-07	-3.140507e-10	-1.911100e-09	-2.029420e+01	-2.274863e+02
4.800000e-07	-3.084971e-10	-1.913430e-09	-1.993532e+01	-2.251828e+02
4.900000e-07	-3.028700e-10	-1.898649e-09	-1.957169e+01	-2.228618e+02
5.000000e-07	-2.971541e-10	-1.868159e-09	-1.920232e+01	-2.205324e+02
5.100000e-07	-2.913383e-10	-1.834808e-09	-1.882650e+01	-2.181927e+02
5.200000e-07	-2.854343e-10	-1.810049e-09	-1.844498e+01	-2.158308e+02
5.300000e-07	-2.794498e-10	-1.796696e-09	-1.805825e+01	-2.134286e+02
5.400000e-07	-2.733886e-10	-1.787686e-09	-1.766657e+01	-2.109656e+02
5.500000e-07	-2.672522e-10	-1.761901e-09	-1.727003e+01	-2.084237e+02
5.600000e-07	-2.610440e-10	-1.738359e-09	-1.686886e+01	-2.057909e+02
5.700000e-07	-2.547739e-10	-1.719812e-09	-1.646367e+01	-2.030637e+02
5.800000e-07	-2.484385e-10	-1.695316e-09	-1.605427e+01	-2.002466e+02
5.900000e-07	-2.420357e-10	-1.671674e-09	-1.564051e+01	-1.973505e+02
6.000000e-07	-2.355717e-10	-1.639108e-09	-1.522281e+01	-1.943893e+02
6.100000e-07	-2.290347e-10	-1.611499e-09	-1.480038e+01	-1.913761e+02
6.200000e-07	-2.224071e-10	-1.592437e-09	-1.437210e+01	-1.883198e+02
6.300000e-07	-2.156958e-10	-1.573795e-09	-1.393841e+01	-1.852225e+02
6.400000e-07	-2.089176e-10	-1.538795e-09	-1.350039e+01	-1.820794e+02
6.500000e-07	-2.020894e-10	-1.505898e-09	-1.305915e+01	-1.788794e+02
6.600000e-07	-1.952240e-10	-1.481812e-09	-1.261550e+01	-1.756082e+02
6.700000e-07	-1.883081e-10	-1.456003e-09	-1.216859e+01	-1.722509e+02
6.800000e-07	-1.813256e-10	-1.428955e-09	-1.171737e+01	-1.687957e+02
6.900000e-07	-1.742858e-10	-1.395571e-09	-1.126245e+01	-1.652354e+02
7.000000e-07	-1.672002e-10	-1.363515e-09	-1.080457e+01	-1.615693e+02
7.100000e-07	-1.600717e-10	-1.331190e-09	-1.034392e+01	-1.578017e+02
7.200000e-07	-1.529026e-10	-1.297925e-09	-9.880646e+00	-1.539407e+02
7.300000e-07	-1.456945e-10	-1.257701e-09	-9.414853e+00	-1.499953e+02
7.400000e-07	-1.384522e-10	-1.219271e-09	-8.946849e+00	-1.459728e+02
7.500000e-07	-1.311824e-10	-1.188908e-09	-8.477063e+00	-1.418769e+02
7.600000e-07	-1.238780e-10	-1.162608e-09	-8.005046e+00	-1.377070e+02
7.700000e-07	-1.165299e-10	-1.131456e-09	-7.530211e+00	-1.334584e+02
7.800000e-07	-1.091423e-10	-1.090614e-09	-7.052818e+00	-1.291243e+02
7.900000e-07	-1.017171e-10	-1.050606e-09	-6.572991e+00	-1.246981e+02
8.000000e-07	-9.424934e-11	-1.010088e-09	-6.090421e+00	-1.201758e+02
8.100000e-07	-8.673982e-11	-9.665622e-10	-5.605149e+00	-1.155581e+02
8.200000e-07	-7.919400e-11	-9.188599e-10	-5.117532e+00	-1.108506e+02
8.300000e-07	-7.162168e-11	-8.773926e-10	-4.628201e+00	-1.060634e+02
8.400000e-07	-6.403782e-11	-8.432723e-10	-4.138125e+00	-1.012091e+02
8.500000e-07	-5.644310e-11	-8.108030e-10	-3.647347e+00	-9.629969e+01
8.600000e-07	-4.883201e-11	-7.697545e-10	-3.155512e+00	-9.134390e+01
8.700000e-07	-4.120706e-11	-7.208371e-10	-2.662780e+00	-8.634440e+01
8.800000e-07	-3.357218e-11	-6.745634e-10	-2.169407e+00	-8.129673e+01
8.900000e-07	-2.593131e-11	-6.284695e-10	-1.675646e+00	-7.618958e+01
9.000000e-07	-1.828601e-11	-5.805760e-10	-1.181600e+00	-7.100671e+01
9.100000e-07	-1.063676e-11	-5.310644e-10	-6.872976e-01	-6.573002e+01
9.200000e-07	-2.983863e-12	-4.859674e-10	-1.927602e-01	-6.034325e+01
9.300000e-07	4.669299e-12	-4.438092e-10	3.017944e-01	-5.483541e+01
9.400000e-07	1.232156e-11	-4.002927e-10	7.962909e-01	-4.920324e+01
9.500000e-07	1.997435e-11	-3.506442e-10	1.290822e+00	-4.345220e+01
9.600000e-07	2.762207e-11	-2.973249e-10	1.785025e+00	-3.759569e+01
9.700000e-07	3.526079e-11	-2.447725e-10	2.278645e+00	-3.165277e+01
9.800000e-07	4.289150e-11	-1.923597e-10	2.771749e+00	-2.564484e+01
9.900000e-07	5.051614e-11	-1.395427e-10	3.264460e+00	-1.959205e+01
1.000000e-06	5.813342e-11	-8.543713e-11	3.756697e+00	-1.351022e+01
1.010000e-06	6.573907e-11	-3.354936e-11	4.248181e+00	-7.408925e+00
1.020000e-06	7.332642e-11	1.650108e-11	4.738482e+00	-1.291069e+00
1.030000e-06	8.088762e-11	6.745302e-11	5.227094e+00	4.845881e+00
1.040000e-06	8.841891e-11	1.226737e-10	5.713772e+00	1.100750e+01
1.050000e-06	9.591356e-11	1.770011e-10	6.198082e+00	1.719935e+01
1.060000e-06	1.033658e-10	2.274803e-10	6.679649e+00	2.342404e+01
1.070000e-06	1.107716e-10	2.769614e-10	7.158221e+00	2.967905e+01
1.080000e-06	1.181275e-10	3.281158e-10	7.633564e+00	3.595585e+01
1.090000e-06	1.254364e-10	3.830472e-10	8.105867e+00	4.224046e+01
1.100000e-06	1.327058e-10	4.380121e-10	8.575623e+00	4.851526e+01
1.110000e-06	1.399429e-10	4.915336e-10	9.043293e+00	5.476161e+01
1.120000e-06	1.471498e-10	5.439919e-10	9.509013e+00	6.096268e+01
1.130000e-06	1.543219e-10	5.980991e-10	9.972476e+00	6.710570e+01
1.140000e-06	1.614507e-10	6.490559e-10	1.043314e+01	7.318327e+01
1.150000e-06	1.685307e-10	6.964430e-10	1.089066e+01	7.919338e+01
1.160000e-06	1.755602e-10	7.442344e-10	1.134492e+01	8.513815e+01
1.170000e-06	1.825379e-10	7.924868e-10	1.179582e+01	9.102177e+01
1.180000e-06	1.894620e-10	8.432529e-10	1.224326e+01	9.684799e+01
1.190000e-06	1.963372e-10	8.941352e-10	1.268754e+01	1.026180e+02
1.200000e-06	2.031712e-10	9.440419e-10	1.312916e+01	1.083292e+02
1.210000e-06	2.099591e-10	9.926389e-10	1.356781e+01	1.139745e+02
1.220000e-06	2.166798e-10	1.040595e-09	1.400210e+01	1.195438e+02
1.230000e-06	2.233116e-10	1.085024e-09	1.443065e+01	1.250255e+02
1.240000e-06	2.298540e-10	1.126640e-09	1.485343e+01	1.304085e+02
1.250000e-06	2.363291e-10	1.167193e-09	1.527185e+01	1.356843e+02
1.260000e-06	2.427544e-10	1.208700e-09	1.568706e+01	1.408488e+02
1.270000e-06	2.491247e-10	1.252276e-09	1.609872e+01	1.459016e+02
1.280000e-06	2.554298e-10	1.295379e-09	1.650616e+01	1.508461e+02
1.290000e-06	2.616690e-10	1.336712e-09	1.690934e+01	1.556871e+02
1.300000e-06	2.678443e-10	1.375107e-09	1.730839e+01	1.604290e+02
1.310000e-06	2.739558e-10	1.412402e-09	1.770333e+01	1.650734e+02
1.320000e-06	2.800092e-10	1.447616e-09	1.809450e+01	1.696181e+02
1.330000e-06	2.859990e-10	1.480804e-09	1.848156e+01	1.740561e+02
1.340000e-06	2.918946e-10	1.513006e-09	1.886255e+01	1.783771e+02
1.350000e-06	2.976746e-10	1.545730e-09	1.923605e+01	1.825690e+02
1.360000e-06	3.033563e-10	1.578747e-09	1.960321e+01	1.866203e+02
1.370000e-06	3.089651e-10	1.611328e-09	1.996565e+01	1.905228e+02
1.380000e-06	3.145007e-10	1.642101e-09	2.032337e+01	1.942735e+02
1.390000e-06	3.199541e-10	1.670609e-09	2.067577e+01	1.978756e+02
1.400000e-06	3.253177e-10	1.698698e-09	2.102237e+01	2.013379e+02
1.410000e-06	3.305845e-10	1.726212e-09	2.136271e+01	2.046737e+02
1.420000e-06	3.357405e-10	1.752584e-09	2.169590e+01	2.078979e+02
1.430000e-06	3.407647e-10	1.776965e-09	2.202056e+01	2.110249e+02
1.440000e-06	3.456651e-10	1.800303e-09	2.233723e+01	2.140658e+02
1.450000e-06	3.504674e-10	1.824480e-09	2.264756e+01	2.170269e+02
1.460000e-06	3.551767e-10	1.849545e-09	2.295188e+01	2.199095e+02
1.470000e-06	3.597891e-10	1.873308e-09	2.324994e+01	2.227107e+02
1.480000e-06	3.643069e-10	1.894746e-09	2.354188e+01	2.254253e+02
1.490000e-06	3.687389e-10	1.914601e-09	2.382828e+01	2.280474e+02
1.500000e-06	3.730724e-10	1.933871e-09	2.410831e+01	2.305736e+02
1.510000e-06	3.772750e-10	1.952909e-09	2.437989e+01	2.330032e+02
1.520000e-06	3.813508e-10	1.970680e-09	2.464327e+01	2.353397e+02
1.530000e-06	3.853227e-10	1.988116e-09	2.489994e+01	2.375895e+02
1.540000e-06	3.891927e-10	2.007533e-09	2.515002e+01	2.397601e+02
1.550000e-06	3.929582e-10	2.027446e-09	2.539335e+01	2.418586e+02
1.560000e-06	3.966266e-10	2.045086e-09	2.563040e+01	2.438895e+02
1.570000e-06	4.001969e-10	2.058684e-09	2.586112e+01	2.458531e+02
1.580000e-06	4.036411e-10	2.070463e-09	2.608368e+01	2.477457e+02
1.590000e-06	4.069503e-10	2.083857e-09	2.629753e+01	2.495605e+02
1.600000e-06	4.101458e-10	2.098134e-09	2.650402e+01	2.512895e+02
1.610000e-06	4.132374e-10	2.112247e-09	2.670380e+01	2.529256e+02
1.620000e-06	4.162236e-10	2.126063e-09	2.689677e+01	2.544657e+02
1.630000e-06	4.191090e-10	2.139805e-09	2.708323e+01	2.559118e+02
1.640000e-06	4.218902e-10	2.152561e-09	2.726295e+01	2.572711e+02
1.650000e-06	4.245394e-10	2.163377e-09	2.743415e+01	2.585554e+02
1.660000e-06	4.270464e-10	2.173172e-09	2.759614e+01	2.597787e+02
1.670000e-06	4.294286e-10	2.182793e-09	2.775008e+01	2.609539e+02
1.680000e-06	4.316965e-10	2.192642e-09	2.789664e+01	2.620900e+02
1.690000e-06	4.338538e-10	2.202608e-09	2.803604e+01	2.631898e+02
1.700000e-06	4.359115e-10	2.212050e-09	2.816901e+01	2.642490e+02
1.710000e-06	4.378681e-10	2.219758e-09	2.829545e+01	2.652569e+02
1.720000e-06	4.397016e-10	2.225677e-09	2.841393e+01	2.661994e+02
1.730000e-06	4.414025e-10	2.231490e-09	2.852384e+01	2.670621e+02
1.740000e-06	4.429693e-10	2.237938e-09	2.862509e+01	2.678343e+02
1.750000e-06	4.444027e-10	2.244353e-09	2.871772e+01	2.685123e+02
1.760000e-06	4.457084e-10	2.250934e-09	2.880209e+01	2.691016e+02
1.770000e-06	4.468754e-10	2.256736e-09	2.887751e+01	2.696159e+02
1.780000e-06	4.478847e-10	2.259852e-09	2.894272e+01	2.700752e+02
1.790000e-06	4.487517e-10	2.261645e-09	2.899875e+01	2.705018e+02
1.800000e-06	4.494983e-10	2.263583e-09	2.904700e+01	2.709149e+02
1.810000e-06	4.501218e-10	2.267133e-09	2.908728e+01	2.713266e+02
1.820000e-06	4.506291e-10	2.272271e-09	2.912007e+01	2.717380e+02
1.830000e-06	4.510233e-10	2.276893e-09	2.914554e+01	2.721388e+02
1.840000e-06	4.512780e-10	2.279748e-09	2.916199e+01	2.725086e+02
1.850000e-06	4.513870e-10	2.282222e-09	2.916904e+01	2.728215e+02
1.860000e-06	4.513722e-10	2.283014e-09	2.916808e+01	2.730514e+02
1.870000e-06	4.512418e-10	2.281218e-09	2.915966e+01	2.731793e+02
1.880000e-06	4.510020e-10	2.278412e-09	2.914416e+01	2.731977e+02
1.890000e-06	4.506640e-10	2.275675e-09	2.912232e+01	2.731146e+02
1.900000e-06	4.502148e-10	2.277108e-09	2.909329e+01	2.729528e+02
1.910000e-06	4.496297e-10	2.279854e-09	2.905547e+01	2.727470e+02
1.920000e-06	4.489134e-10	2.280554e-09	2.900919e+01	2.725375e+02
1.930000e-06	4.480848e-10	2.281591e-09	2.895564e+01	2.723620e+02
1.940000e-06	4.471609e-10	2.289045e-09	2.889594e+01	2.722476e+02
1.950000e-06	4.461181e-10	2.274078e-09	2.882855e+01	2.722042e+02
1.960000e-06	4.448568e-10	2.203677e-09	2.874704e+01	2.722212e+02
1.970000e-06	4.433292e-10	2.199528e-09	2.864832e+01	2.722676e+02
1.980000e-06	4.416549e-10	2.286697e-09	2.854013e+01	2.722965e+02
1.990000e-06	4.399983e-10	2.351432e-09	2.843308e+01	2.722532e+02
2.000000e-06	4.383197e-10	2.256122e-09	2.832460e+01	2.720845e+02
2.010000e-06	4.364358e-10	2.180578e-09	2.820286e+01	2.717485e+02
2.020000e-06	4.344270e-10	2.364410e-09	2.807305e+01	2.712223e+02
2.030000e-06	4.324113e-10	2.347215e-09	2.794280e+01	2.705067e+02
2.040000e-06	4.302156e-10	2.221707e-09	2.780090e+01	2.696257e+02
2.050000e-06	4.278247e-10	2.409237e-09	2.764640e+01	2.686226e+02
2.060000e-06	4.253766e-10	2.452533e-09	2.748821e+01	2.675514e+02
2.070000e-06	4.227967e-10	2.250503e-09	2.732149e+01	2.664674e+02
2.080000e-06	4.200765e-10	2.314992e-09	2.714570e+01	2.654168e+02
2.090000e-06	4.173280e-10	2.390500e-09	2.696810e+01	2.644289e+02
2.100000e-06	4.144447e-10	2.237635e-09	2.678177e+01	2.635111e+02
2.110000e-06	4.113568e-10	2.303185e-09	2.658223e+01	2.626487e+02
2.120000e-06	4.081749e-10	2.360776e-09	2.637661e+01	2.618090e+02
2.130000e-06	4.048816e-10	2.211848e-09	2.616379e+01	2.609481e+02
2.140000e-06	4.014659e-10	2.289008e-09	2.594307e+01	2.600206e+02
2.150000e-06	3.979688e-10	2.328688e-09	2.571707e+01	2.589880e+02
2.160000e-06	3.943243e-10	2.213785e-09	2.548156e+01	2.578262e+02
2.170000e-06	3.905638e-10	2.279130e-09	2.523856e+01	2.565295e+02
2.180000e-06	3.867334e-10	2.224302e-09	2.499103e+01	2.551101e+02
2.190000e-06	3.827481e-10	2.164911e-09	2.473350e+01	2.535946e+02
2.200000e-06	3.786319e-10	2.259836e-09	2.446750e+01	2.520177e+02
2.210000e-06	3.744352e-10	2.176772e-09	2.419631e+01	2.504138e+02
2.220000e-06	3.701387e-10	2.143994e-09	2.391867e+01	2.488102e+02
2.230000e-06	3.657639e-10	2.223482e-09	2.363596e+01	2.472210e+02
2.240000e-06	3.612794e-10	2.151107e-09	2.334617e+01	2.456451e+02
2.250000e-06	3.566753e-10	2.118056e-09	2.304864e+01	2.440667e+02
2.260000e-06	3.519964e-10	2.130375e-09	2.274629e+01	2.424598e+02
2.270000e-06	3.472098e-10	2.083884e-09	2.243698e+01	2.407940e+02
2.280000e-06	3.422982e-10	2.084729e-09	2.211958e+01	2.390410e+02
2.290000e-06	3.372762e-10	2.075346e-09	2.179505e+01	2.371810e+02
2.300000e-06	3.321605e-10	2.061054e-09	2.146447e+01	2.352060e+02
2.310000e-06	3.269671e-10	2.036599e-09	2.112887e+01	2.331213e+02
2.320000e-06	3.216570e-10	2.013156e-09	2.078572e+01	2.309433e+02
2.330000e-06	3.162184e-10	2.015057e-09	2.043428e+01	2.286956e+02
2.340000e-06	3.106824e-10	1.964403e-09	2.007654e+01	2.264033e+02
2.350000e-06	3.050653e-10	1.947620e-09	1.971355e+01	2.240876e+02
2.360000e-06	2.993778e-10	1.946848e-09	1.934602e+01	2.217613e+02
2.370000e-06	2.936036e-10	1.918002e-09	1.897288e+01	2.194266e+02
2.380000e-06	2.877459e-10	1.913807e-09	1.859435e+01	2.170752e+02
2.390000e-06	2.818361e-10	1.875827e-09	1.821245e+01	2.146908e+02
2.400000e-06	2.758725e-10	1.843944e-09	1.782709e+01	2.122532e+02
2.410000e-06	2.698330e-10	1.840752e-09	1.743680e+01	2.097430e+02
2.420000e-06	2.636788e-10	1.807094e-09	1.703912e+01	2.071456e+02
2.430000e-06	2.574109e-10	1.789564e-09	1.663407e+01	2.044540e+02
2.440000e-06	2.510773e-10	1.765581e-09	1.622479e+01	2.016700e+02
2.450000e-06	2.446937e-10	1.730023e-09	1.581227e+01	1.988023e+02
2.460000e-06	2.382481e-10	1.715788e-09	1.539576e+01	1.958643e+02
2.470000e-06	2.317279e-10	1.686523e-09	1.497442e+01	1.928696e+02
2.480000e-06	2.251346e-10	1.656898e-09	1.454835e+01	1.898291e+02
2.490000e-06	2.184842e-10	1.626680e-09	1.411859e+01	1.867477e+02
2.500000e-06	2.117834e-10	1.607040e-09	1.368558e+01	1.836231e+02
2.510000e-06	2.050313e-10	1.586338e-09	1.324925e+01	1.804463e+02
2.520000e-06	1.982182e-10	1.549158e-09	1.280899e+01	1.772039e+02
2.530000e-06	1.913330e-10	1.520701e-09	1.236406e+01	1.738809e+02
2.540000e-06	1.843699e-10	1.485916e-09	1.191409e+01	1.704638e+02
2.550000e-06	1.773257e-10	1.457711e-09	1.145889e+01	1.669438e+02
2.560000e-06	1.702194e-10	1.429012e-09	1.099967e+01	1.633175e+02
2.570000e-06	1.630742e-10	1.392729e-09	1.053795e+01	1.595876e+02
2.580000e-06	1.558979e-10	1.366580e-09	1.007421e+01	1.557609e+02
2.590000e-06	1.486897e-10	1.337369e-09	9.608406e+00	1.518465e+02
2.600000e-06	1.414398e-10	1.303674e-09	9.139911e+00	1.478526e+02
2.610000e-06	1.341475e-10	1.263454e-09	8.668674e+00	1.437844e+02
2.620000e-06	1.268226e-10	1.220326e-09	8.195334e+00	1.396430e+02
2.630000e-06	1.194689e-10	1.186375e-09	7.720128e+00	1.354249e+02
2.640000e-06	1.120861e-10	1.153263e-09	7.243044e+00	1.311241e+02
2.650000e-06	1.046737e-10	1.114849e-09	6.764048e+00	1.267334e+02
2.660000e-06	9.723523e-11	1.073933e-09	6.283368e+00	1.222478e+02
2.670000e-06	8.977217e-11	1.035726e-09	5.801098e+00	1.176659e+02
2.680000e-06	8.228373e-11	9.989456e-10	5.317188e+00	1.129914e+02
2.690000e-06	7.477527e-11	9.556073e-10	4.831984e+00	1.082331e+02
2.700000e-06	6.725182e-11	9.116071e-10	4.345812e+00	1.034028e+02
2.710000e-06	5.971565e-11	8.691984e-10	3.858817e+00	9.851313e+01
2.720000e-06	5.216297e-11	8.301784e-10	3.370756e+00	9.357442e+01
2.730000e-06	4.459209e-11	7.923242e-10	2.881519e+00	8.859176e+01
2.740000e-06	3.700813e-11	7.489206e-10	2.391437e+00	8.356345e+01
2.750000e-06	2.941270e-11	7.046664e-10	1.900613e+00	7.848062e+01
2.760000e-06	2.180708e-11	6.596524e-10	1.409131e+00	7.332858e+01
2.770000e-06	1.419722e-11	6.154164e-10	9.173757e-01	6.808951e+01
2.780000e-06	6.587203e-12	5.694225e-10	4.256093e-01	6.274604e+01
2.790000e-06	-1.027272e-12	5.208842e-10	-6.644485e-02	5.728482e+01
2.800000e-06	-8.649677e-12	4.741794e-10	-5.590114e-01	5.169951e+01
2.810000e-06	-1.627413e-11	4.278886e-10	-1.051710e+00	4.599227e+01
2.820000e-06	-2.389068e-11	3.793581e-10	-1.543899e+00	4.017371e+01
2.830000e-06	-3.149541e-11	3.290233e-10	-2.035323e+00	3.426111e+01
2.840000e-06	-3.909149e-11	2.786629e-10	-2.526188e+00	2.827541e+01
2.850000e-06	-4.668011e-11	2.274754e-10	-3.016572e+00	2.223763e+01
2.860000e-06	-5.425725e-11	1.765567e-10	-3.506213e+00	1.616552e+01
2.870000e-06	-6.181720e-11	1.251638e-10	-3.994743e+00	1.007112e+01
2.880000e-06	-6.935654e-11	7.265818e-11	-4.481942e+00	3.959802e+00
2.890000e-06	-7.687454e-11	1.937945e-11	-4.967762e+00	-2.169158e+00
2.900000e-06	-8.436946e-11	-3.473384e-11	-5.452091e+00	-8.320528e+00
2.910000e-06	-9.183977e-11	-8.922850e-11	-5.934829e+00	-1.450024e+01
