# Temperatura_=_20.0
# Concentracion g/m^3_=_10000.0
# C_Vs_to_Am_M_A/Vsm_=_116720831517.84952
# pendiente_HvsI_1/m_=_3716.3
# ordenada_HvsI_A/m_=_1297.0
# frecuencia_Hz_=_268434.42538481747
# Promedio de 31 ciclos

Tiempo_(s)	Campo_(V.s)	Magnetizacion_(V.s)	Campo_(kA/m)	Magnetizacion_(A/m)
0.000000e+00	-8.107219e-10	-2.745924e-09	-5.132542e+01	-3.748805e+02
1.000000e-08	-8.105125e-10	-2.746761e-09	-5.131154e+01	-3.748700e+02
2.000000e-08	-8.100761e-10	-2.749210e-09	-5.128336e+01	-3.747786e+02
3.000000e-08	-8.094335e-10	-2.748800e-09	-5.124216e+01	-3.745947e+02
4.000000e-08	-8.086026e-10	-2.744430e-09	-5.118904e+01	-3.743145e+02
5.000000e-08	-8.075668e-10	-2.741716e-09	-5.112286e+01	-3.739454e+02
6.000000e-08	-8.062816e-10	-2.739160e-09	-5.104082e+01	-3.735053e+02
7.000000e-08	-8.047354e-10	-2.735581e-09	-5.094230e+01	-3.730215e+02
8.000000e-08	-8.029521e-10	-2.728419e-09	-5.082881e+01	-3.725261e+02
9.000000e-08	-8.009388e-10	-2.718033e-09	-5.070069e+01	-3.720502e+02
1.000000e-07	-7.986422e-10	-2.760123e-09	-5.055451e+01	-3.716177e+02
1.100000e-07	-7.960540e-10	-2.794432e-09	-5.038996e+01	-3.712392e+02
1.200000e-07	-7.932478e-10	-2.743617e-09	-5.021180e+01	-3.709084e+02
1.300000e-07	-7.902921e-10	-2.724162e-09	-5.002439e+01	-3.706009e+02
1.400000e-07	-7.872346e-10	-2.711620e-09	-4.983058e+01	-3.702756e+02
1.500000e-07	-7.840206e-10	-2.626601e-09	-4.962653e+01	-3.698803e+02
1.600000e-07	-7.805373e-10	-2.702916e-09	-4.940533e+01	-3.693588e+02
1.700000e-07	-7.768420e-10	-2.733004e-09	-4.917090e+01	-3.686589e+02
1.800000e-07	-7.729367e-10	-2.617342e-09	-4.892292e+01	-3.677415e+02
1.900000e-07	-7.687474e-10	-2.719466e-09	-4.865713e+01	-3.665860e+02
2.000000e-07	-7.643879e-10	-2.688326e-09	-4.838082e+01	-3.651945e+02
2.100000e-07	-7.598529e-10	-2.591755e-09	-4.809318e+01	-3.635913e+02
2.200000e-07	-7.551164e-10	-2.674174e-09	-4.779282e+01	-3.618197e+02
2.300000e-07	-7.501620e-10	-2.594233e-09	-4.747842e+01	-3.599349e+02
2.400000e-07	-7.448799e-10	-2.574346e-09	-4.714322e+01	-3.579959e+02
2.500000e-07	-7.393369e-10	-2.618422e-09	-4.679178e+01	-3.560565e+02
2.600000e-07	-7.335921e-10	-2.571744e-09	-4.642748e+01	-3.541577e+02
2.700000e-07	-7.276428e-10	-2.603419e-09	-4.605031e+01	-3.523221e+02
2.800000e-07	-7.215113e-10	-2.586446e-09	-4.566168e+01	-3.505525e+02
2.900000e-07	-7.151804e-10	-2.567862e-09	-4.526041e+01	-3.488328e+02
3.000000e-07	-7.086553e-10	-2.546449e-09	-4.484679e+01	-3.471326e+02
3.100000e-07	-7.019027e-10	-2.521102e-09	-4.441859e+01	-3.454138e+02
3.200000e-07	-6.948985e-10	-2.532754e-09	-4.397455e+01	-3.436379e+02
3.300000e-07	-6.876773e-10	-2.510397e-09	-4.351688e+01	-3.417731e+02
3.400000e-07	-6.802666e-10	-2.524503e-09	-4.304725e+01	-3.397992e+02
3.500000e-07	-6.726780e-10	-2.493334e-09	-4.256632e+01	-3.377100e+02
3.600000e-07	-6.648685e-10	-2.465089e-09	-4.207133e+01	-3.355135e+02
3.700000e-07	-6.568207e-10	-2.472085e-09	-4.156125e+01	-3.332285e+02
3.800000e-07	-6.485617e-10	-2.425078e-09	-4.103784e+01	-3.308803e+02
3.900000e-07	-6.401226e-10	-2.415601e-09	-4.050315e+01	-3.284951e+02
4.000000e-07	-6.315318e-10	-2.409761e-09	-3.995888e+01	-3.260946e+02
4.100000e-07	-6.227827e-10	-2.399459e-09	-3.940457e+01	-3.236921e+02
4.200000e-07	-6.138691e-10	-2.388175e-09	-3.883982e+01	-3.212904e+02
4.300000e-07	-6.047827e-10	-2.358483e-09	-3.826411e+01	-3.188818e+02
4.400000e-07	-5.955245e-10	-2.342123e-09	-3.767757e+01	-3.164505e+02
4.500000e-07	-5.861021e-10	-2.312539e-09	-3.708059e+01	-3.139755e+02
4.600000e-07	-5.765084e-10	-2.304405e-09	-3.647280e+01	-3.114348e+02
4.700000e-07	-5.667523e-10	-2.281981e-09	-3.585473e+01	-3.088095e+02
4.800000e-07	-5.568431e-10	-2.262759e-09	-3.522706e+01	-3.060861e+02
4.900000e-07	-5.467883e-10	-2.252064e-09	-3.459021e+01	-3.032581e+02
5.000000e-07	-5.365861e-10	-2.227948e-09	-3.394395e+01	-3.003260e+02
5.100000e-07	-5.262323e-10	-2.208600e-09	-3.328814e+01	-2.972951e+02
5.200000e-07	-5.157354e-10	-2.174868e-09	-3.262330e+01	-2.941740e+02
5.300000e-07	-5.051047e-10	-2.153643e-09	-3.194990e+01	-2.909710e+02
5.400000e-07	-4.943299e-10	-2.132421e-09	-3.126736e+01	-2.876919e+02
5.500000e-07	-4.834082e-10	-2.112123e-09	-3.057559e+01	-2.843384e+02
5.600000e-07	-4.723556e-10	-2.085011e-09	-2.987553e+01	-2.809074e+02
5.700000e-07	-4.611730e-10	-2.056055e-09	-2.916727e+01	-2.773915e+02
5.800000e-07	-4.498598e-10	-2.032205e-09	-2.845072e+01	-2.737806e+02
5.900000e-07	-4.384061e-10	-2.000771e-09	-2.772518e+01	-2.700633e+02
6.000000e-07	-4.268025e-10	-1.972774e-09	-2.699020e+01	-2.662293e+02
6.100000e-07	-4.150581e-10	-1.941255e-09	-2.624642e+01	-2.622707e+02
6.200000e-07	-4.031894e-10	-1.915134e-09	-2.549477e+01	-2.581830e+02
6.300000e-07	-3.912000e-10	-1.888557e-09	-2.473546e+01	-2.539653e+02
6.400000e-07	-3.790898e-10	-1.858841e-09	-2.396848e+01	-2.496197e+02
6.500000e-07	-3.668679e-10	-1.822659e-09	-2.319441e+01	-2.451501e+02
6.600000e-07	-3.545365e-10	-1.783152e-09	-2.241345e+01	-2.405608e+02
6.700000e-07	-3.420994e-10	-1.747303e-09	-2.162585e+01	-2.358556e+02
6.800000e-07	-3.295565e-10	-1.712045e-09	-2.083153e+01	-2.310362e+02
6.900000e-07	-3.169142e-10	-1.677726e-09	-2.003093e+01	-2.261025e+02
7.000000e-07	-3.041827e-10	-1.640253e-09	-1.922476e+01	-2.210523e+02
7.100000e-07	-2.913646e-10	-1.605566e-09	-1.841316e+01	-2.158815e+02
7.200000e-07	-2.784635e-10	-1.571339e-09	-1.759621e+01	-2.105852e+02
7.300000e-07	-2.654841e-10	-1.532242e-09	-1.677424e+01	-2.051583e+02
7.400000e-07	-2.524290e-10	-1.486921e-09	-1.594756e+01	-1.995956e+02
7.500000e-07	-2.392947e-10	-1.438960e-09	-1.511594e+01	-1.938926e+02
7.600000e-07	-2.260876e-10	-1.393017e-09	-1.427970e+01	-1.880447e+02
7.700000e-07	-2.128142e-10	-1.349911e-09	-1.343922e+01	-1.820477e+02
7.800000e-07	-1.994860e-10	-1.304887e-09	-1.259528e+01	-1.758967e+02
7.900000e-07	-1.861184e-10	-1.256188e-09	-1.174891e+01	-1.695862e+02
8.000000e-07	-1.727135e-10	-1.207656e-09	-1.090011e+01	-1.631095e+02
8.100000e-07	-1.592700e-10	-1.158397e-09	-1.004884e+01	-1.564592e+02
8.200000e-07	-1.457831e-10	-1.108422e-09	-9.194934e+00	-1.496270e+02
8.300000e-07	-1.322570e-10	-1.055571e-09	-8.338623e+00	-1.426049e+02
8.400000e-07	-1.187025e-10	-1.001024e-09	-7.480543e+00	-1.353851e+02
8.500000e-07	-1.051261e-10	-9.448175e-10	-6.621036e+00	-1.279610e+02
8.600000e-07	-9.152447e-11	-8.863979e-10	-5.759945e+00	-1.203273e+02
8.700000e-07	-7.789564e-11	-8.249828e-10	-4.897175e+00	-1.124803e+02
8.800000e-07	-6.424483e-11	-7.608792e-10	-4.033009e+00	-1.044178e+02
8.900000e-07	-5.057525e-11	-6.984010e-10	-3.167616e+00	-9.613878e+01
9.000000e-07	-3.689142e-11	-6.374126e-10	-2.301290e+00	-8.764295e+01
9.100000e-07	-2.319911e-11	-5.770251e-10	-1.434465e+00	-7.893077e+01
9.200000e-07	-9.503521e-12	-5.139217e-10	-5.674769e-01	-7.000321e+01
9.300000e-07	4.195713e-12	-4.476178e-10	2.996884e-01	-6.086183e+01
9.400000e-07	1.789850e-11	-3.778266e-10	1.167125e+00	-5.150921e+01
9.500000e-07	3.160394e-11	-3.042135e-10	2.034754e+00	-4.194948e+01
9.600000e-07	4.530745e-11	-2.278358e-10	2.902237e+00	-3.218890e+01
9.700000e-07	5.899841e-11	-1.506964e-10	3.768860e+00	-2.223649e+01
9.800000e-07	7.266958e-11	-7.651544e-11	4.634240e+00	-1.210449e+01
9.900000e-07	8.632121e-11	-5.879022e-12	5.498426e+00	-1.808587e+00
1.000000e-06	9.995546e-11	6.402158e-11	6.361482e+00	8.632034e+00
1.010000e-06	1.135677e-10	1.386271e-10	7.223116e+00	1.919491e+01
1.020000e-06	1.271504e-10	2.179384e-10	8.082815e+00	2.985466e+01
1.030000e-06	1.406971e-10	2.998064e-10	8.940262e+00	4.058342e+01
1.040000e-06	1.542044e-10	3.821433e-10	9.795254e+00	5.135134e+01
1.050000e-06	1.676706e-10	4.647081e-10	1.064766e+01	6.212712e+01
1.060000e-06	1.810955e-10	5.464154e-10	1.149748e+01	7.287839e+01
1.070000e-06	1.944789e-10	6.238923e-10	1.234465e+01	8.357233e+01
1.080000e-06	2.078143e-10	6.976103e-10	1.318880e+01	9.417615e+01
1.090000e-06	2.210923e-10	7.705735e-10	1.402920e+01	1.046578e+02
1.100000e-06	2.343007e-10	8.464737e-10	1.486508e+01	1.149866e+02
1.110000e-06	2.474307e-10	9.234012e-10	1.569607e+01	1.251342e+02
1.120000e-06	2.604843e-10	9.988151e-10	1.652235e+01	1.350755e+02
1.130000e-06	2.734631e-10	1.071627e-09	1.734387e+01	1.447891e+02
1.140000e-06	2.863604e-10	1.142630e-09	1.816012e+01	1.542578e+02
1.150000e-06	2.991680e-10	1.212163e-09	1.897061e+01	1.634690e+02
1.160000e-06	3.118828e-10	1.277595e-09	1.977527e+01	1.724145e+02
1.170000e-06	3.245090e-10	1.338438e-09	2.057442e+01	1.810897e+02
1.180000e-06	3.370508e-10	1.398070e-09	2.136822e+01	1.894932e+02
1.190000e-06	3.495031e-10	1.458200e-09	2.215624e+01	1.976252e+02
1.200000e-06	3.618527e-10	1.516620e-09	2.293781e+01	2.054874e+02
1.210000e-06	3.740927e-10	1.571196e-09	2.371252e+01	2.130817e+02
1.220000e-06	3.862176e-10	1.622628e-09	2.447988e+01	2.204100e+02
1.230000e-06	3.982227e-10	1.673540e-09	2.523958e+01	2.274740e+02
1.240000e-06	4.101118e-10	1.723819e-09	2.599194e+01	2.342756e+02
1.250000e-06	4.218859e-10	1.771695e-09	2.673699e+01	2.408172e+02
1.260000e-06	4.335354e-10	1.815108e-09	2.747411e+01	2.471023e+02
1.270000e-06	4.450477e-10	1.855645e-09	2.820259e+01	2.531357e+02
1.280000e-06	4.564199e-10	1.896977e-09	2.892226e+01	2.589238e+02
1.290000e-06	4.676551e-10	1.938786e-09	2.963323e+01	2.644747e+02
1.300000e-06	4.787607e-10	1.977332e-09	3.033602e+01	2.697970e+02
1.310000e-06	4.897469e-10	2.012124e-09	3.103125e+01	2.749000e+02
1.320000e-06	5.006149e-10	2.044537e-09	3.171894e+01	2.797925e+02
1.330000e-06	5.113504e-10	2.076990e-09	3.239823e+01	2.844823e+02
1.340000e-06	5.219373e-10	2.108332e-09	3.306808e+01	2.889763e+02
1.350000e-06	5.323702e-10	2.138655e-09	3.372814e+01	2.932803e+02
1.360000e-06	5.426535e-10	2.167785e-09	3.437880e+01	2.973994e+02
1.370000e-06	5.527938e-10	2.196331e-09	3.502043e+01	3.013391e+02
1.380000e-06	5.627849e-10	2.225783e-09	3.565252e+01	3.051054e+02
1.390000e-06	5.726105e-10	2.252410e-09	3.627410e+01	3.087063e+02
1.400000e-06	5.822628e-10	2.274646e-09	3.688471e+01	3.121509e+02
1.410000e-06	5.917496e-10	2.295747e-09	3.748486e+01	3.154503e+02
1.420000e-06	6.010819e-10	2.318653e-09	3.807517e+01	3.186163e+02
1.430000e-06	6.102528e-10	2.341459e-09	3.865524e+01	3.216604e+02
1.440000e-06	6.192434e-10	2.363141e-09	3.922391e+01	3.245929e+02
1.450000e-06	6.280512e-10	2.384851e-09	3.978102e+01	3.274217e+02
1.460000e-06	6.366881e-10	2.408232e-09	4.032731e+01	3.301517e+02
1.470000e-06	6.451579e-10	2.431085e-09	4.086300e+01	3.327846e+02
1.480000e-06	6.534452e-10	2.450318e-09	4.138715e+01	3.353191e+02
1.490000e-06	6.615348e-10	2.466069e-09	4.189877e+01	3.377527e+02
1.500000e-06	6.694294e-10	2.481642e-09	4.239803e+01	3.400824e+02
1.510000e-06	6.771290e-10	2.498104e-09	4.288487e+01	3.423064e+02
1.520000e-06	6.846162e-10	2.513609e-09	4.335824e+01	3.444251e+02
1.530000e-06	6.918891e-10	2.528685e-09	4.381810e+01	3.464420e+02
1.540000e-06	6.989640e-10	2.544297e-09	4.426550e+01	3.483632e+02
1.550000e-06	7.058470e-10	2.560555e-09	4.470078e+01	3.501970e+02
1.560000e-06	7.125234e-10	2.575755e-09	4.512296e+01	3.519523e+02
1.570000e-06	7.189880e-10	2.588536e-09	4.553175e+01	3.536372e+02
1.580000e-06	7.252603e-10	2.599856e-09	4.592843e+01	3.552576e+02
1.590000e-06	7.313496e-10	2.611657e-09	4.631343e+01	3.568161e+02
1.600000e-06	7.372358e-10	2.624518e-09	4.668547e+01	3.583121e+02
1.610000e-06	7.429048e-10	2.637470e-09	4.704377e+01	3.597419e+02
1.620000e-06	7.483655e-10	2.648363e-09	4.738897e+01	3.611004e+02
1.630000e-06	7.536029e-10	2.657010e-09	4.772003e+01	3.623826e+02
1.640000e-06	7.585912e-10	2.665954e-09	4.803531e+01	3.635851e+02
1.650000e-06	7.633486e-10	2.674454e-09	4.833605e+01	3.647078e+02
1.660000e-06	7.679092e-10	2.682581e-09	4.862437e+01	3.657541e+02
1.670000e-06	7.722678e-10	2.690156e-09	4.889980e+01	3.667310e+02
1.680000e-06	7.763999e-10	2.698061e-09	4.916086e+01	3.676476e+02
1.690000e-06	7.803130e-10	2.708081e-09	4.940815e+01	3.685136e+02
1.700000e-06	7.840310e-10	2.717425e-09	4.964310e+01	3.693370e+02
1.710000e-06	7.875395e-10	2.724628e-09	4.986468e+01	3.701229e+02
1.720000e-06	7.908191e-10	2.729494e-09	5.007177e+01	3.708719e+02
1.730000e-06	7.938823e-10	2.733882e-09	5.026527e+01	3.715803e+02
1.740000e-06	7.967416e-10	2.737477e-09	5.044577e+01	3.722411e+02
1.750000e-06	7.993710e-10	2.740078e-09	5.061163e+01	3.728458e+02
1.760000e-06	8.017575e-10	2.744185e-09	5.076218e+01	3.733865e+02
1.770000e-06	8.039309e-10	2.749401e-09	5.089932e+01	3.738584e+02
1.780000e-06	8.059004e-10	2.755484e-09	5.102346e+01	3.742608e+02
1.790000e-06	8.076358e-10	2.761249e-09	5.113266e+01	3.745984e+02
1.800000e-06	8.091226e-10	2.765836e-09	5.122616e+01	3.748796e+02
1.810000e-06	8.103644e-10	2.769051e-09	5.130416e+01	3.751151e+02
1.820000e-06	8.113491e-10	2.770559e-09	5.136592e+01	3.753154e+02
1.830000e-06	8.120914e-10	2.770127e-09	5.141240e+01	3.754874e+02
1.840000e-06	8.126179e-10	2.769699e-09	5.144527e+01	3.756323e+02
1.850000e-06	8.129184e-10	2.769341e-09	5.146378e+01	3.757448e+02
1.860000e-06	8.129787e-10	2.770758e-09	5.146705e+01	3.758131e+02
1.870000e-06	8.128176e-10	2.775068e-09	5.145636e+01	3.758213e+02
1.880000e-06	8.124570e-10	2.775943e-09	5.143299e+01	3.757526e+02
1.890000e-06	8.118777e-10	2.771075e-09	5.139575e+01	3.755938e+02
1.900000e-06	8.110764e-10	2.769210e-09	5.134456e+01	3.753387e+02
1.910000e-06	8.100732e-10	2.767592e-09	5.128057e+01	3.749917e+02
1.920000e-06	8.088409e-10	2.763238e-09	5.120194e+01	3.745682e+02
1.930000e-06	8.073690e-10	2.760339e-09	5.110819e+01	3.740931e+02
1.940000e-06	8.057019e-10	2.766538e-09	5.100222e+01	3.735979e+02
1.950000e-06	8.038448e-10	2.764128e-09	5.088406e+01	3.731146e+02
1.960000e-06	8.016808e-10	2.680721e-09	5.074621e+01	3.726693e+02
1.970000e-06	7.991425e-10	2.682012e-09	5.058474e+01	3.722768e+02
1.980000e-06	7.963157e-10	2.724018e-09	5.040516e+01	3.719353e+02
1.990000e-06	7.932956e-10	2.716688e-09	5.021355e+01	3.716251e+02
2.000000e-06	7.902182e-10	2.819796e-09	5.001859e+01	3.713091e+02
2.010000e-06	7.870410e-10	2.739999e-09	4.981685e+01	3.709375e+02
2.020000e-06	7.835744e-10	2.648174e-09	4.959676e+01	3.704543e+02
2.030000e-06	7.799582e-10	2.791500e-09	4.936767e+01	3.698056e+02
2.040000e-06	7.761849e-10	2.703680e-09	4.912819e+01	3.689481e+02
2.050000e-06	7.720868e-10	2.692016e-09	4.886822e+01	3.678560e+02
2.060000e-06	7.678101e-10	2.814183e-09	4.859707e+01	3.665252e+02
2.070000e-06	7.632759e-10	2.677559e-09	4.830926e+01	3.649746e+02
2.080000e-06	7.585013e-10	2.733918e-09	4.800673e+01	3.632428e+02
2.090000e-06	7.536347e-10	2.741197e-09	4.769816e+01	3.613827e+02
2.100000e-06	7.484769e-10	2.613910e-09	4.737090e+01	3.594531e+02
2.110000e-06	7.430826e-10	2.704472e-09	4.702903e+01	3.575099e+02
2.120000e-06	7.374760e-10	2.611973e-09	4.667340e+01	3.555979e+02
2.130000e-06	7.315921e-10	2.614526e-09	4.630038e+01	3.537450e+02
2.140000e-06	7.255557e-10	2.642623e-09	4.591775e+01	3.519590e+02
2.150000e-06	7.192625e-10	2.530727e-09	4.551868e+01	3.502286e+02
2.160000e-06	7.127411e-10	2.619860e-09	4.510545e+01	3.485266e+02
2.170000e-06	7.060394e-10	2.549770e-09	4.468060e+01	3.468162e+02
2.180000e-06	6.991051e-10	2.554076e-09	4.424115e+01	3.450585e+02
2.190000e-06	6.920066e-10	2.550277e-09	4.379124e+01	3.432193e+02
2.200000e-06	6.846440e-10	2.475827e-09	4.332442e+01	3.412751e+02
2.210000e-06	6.770581e-10	2.543686e-09	4.284377e+01	3.392160e+02
2.220000e-06	6.692794e-10	2.444589e-09	4.235078e+01	3.370464e+02
2.230000e-06	6.612751e-10	2.488492e-09	4.184369e+01	3.347826e+02
2.240000e-06	6.531197e-10	2.470136e-09	4.132696e+01	3.324488e+02
2.250000e-06	6.447513e-10	2.413034e-09	4.079665e+01	3.300714e+02
2.260000e-06	6.362163e-10	2.439980e-09	4.025593e+01	3.276736e+02
2.270000e-06	6.275121e-10	2.359488e-09	3.970437e+01	3.252712e+02
2.280000e-06	6.186128e-10	2.394271e-09	3.914058e+01	3.228698e+02
2.290000e-06	6.095466e-10	2.347968e-09	3.856618e+01	3.204644e+02
2.300000e-06	6.002830e-10	2.347435e-09	3.797934e+01	3.180411e+02
2.310000e-06	5.908825e-10	2.333970e-09	3.738386e+01	3.155798e+02
2.320000e-06	5.813362e-10	2.290812e-09	3.677914e+01	3.130584e+02
2.330000e-06	5.716431e-10	2.301836e-09	3.616520e+01	3.104570e+02
2.340000e-06	5.617981e-10	2.242002e-09	3.554151e+01	3.077604e+02
2.350000e-06	5.517814e-10	2.244343e-09	3.490695e+01	3.049604e+02
2.360000e-06	5.416116e-10	2.202675e-09	3.426268e+01	3.020554e+02
2.370000e-06	5.312718e-10	2.199813e-09	3.360777e+01	2.990501e+02
2.380000e-06	5.207916e-10	2.185996e-09	3.294402e+01	2.959521e+02
2.390000e-06	5.101869e-10	2.152307e-09	3.227240e+01	2.927702e+02
2.400000e-06	4.994664e-10	2.136635e-09	3.159350e+01	2.895109e+02
2.410000e-06	4.886167e-10	2.095313e-09	3.090628e+01	2.861772e+02
2.420000e-06	4.776113e-10	2.084142e-09	3.020921e+01	2.827673e+02
2.430000e-06	4.664497e-10	2.043630e-09	2.950226e+01	2.792748e+02
2.440000e-06	4.551455e-10	2.025882e-09	2.878632e+01	2.756901e+02
2.450000e-06	4.437164e-10	1.993136e-09	2.806248e+01	2.720020e+02
2.460000e-06	4.321513e-10	1.967259e-09	2.732993e+01	2.681997e+02
2.470000e-06	4.204429e-10	1.944391e-09	2.658826e+01	2.642746e+02
2.480000e-06	4.085835e-10	1.909643e-09	2.583709e+01	2.602213e+02
2.490000e-06	3.965906e-10	1.883754e-09	2.507760e+01	2.560380e+02
2.500000e-06	3.844888e-10	1.850332e-09	2.431125e+01	2.517260e+02
2.510000e-06	3.722842e-10	1.827750e-09	2.353839e+01	2.472889e+02
2.520000e-06	3.599713e-10	1.788307e-09	2.275870e+01	2.427309e+02
2.530000e-06	3.475511e-10	1.749627e-09	2.197218e+01	2.380561e+02
2.540000e-06	3.350329e-10	1.709272e-09	2.117939e+01	2.332668e+02
2.550000e-06	3.224060e-10	1.674061e-09	2.037974e+01	2.283634e+02
2.560000e-06	3.096692e-10	1.640056e-09	1.957320e+01	2.233442e+02
2.570000e-06	2.968377e-10	1.600658e-09	1.876070e+01	2.182056e+02
2.580000e-06	2.839374e-10	1.565023e-09	1.794384e+01	2.129429e+02
2.590000e-06	2.709742e-10	1.528322e-09	1.712296e+01	2.075510e+02
2.600000e-06	2.579344e-10	1.492173e-09	1.629730e+01	2.020246e+02
2.610000e-06	2.448159e-10	1.450075e-09	1.546674e+01	1.963590e+02
2.620000e-06	2.316271e-10	1.402964e-09	1.463168e+01	1.905499e+02
2.630000e-06	2.183813e-10	1.356288e-09	1.379293e+01	1.845927e+02
2.640000e-06	2.050799e-10	1.314160e-09	1.295063e+01	1.784830e+02
2.650000e-06	1.917242e-10	1.271539e-09	1.210498e+01	1.722153e+02
2.660000e-06	1.783205e-10	1.226430e-09	1.125638e+01	1.657832e+02
2.670000e-06	1.648708e-10	1.179337e-09	1.040487e+01	1.591795e+02
2.680000e-06	1.513720e-10	1.132778e-09	9.550215e+00	1.523962e+02
2.690000e-06	1.378256e-10	1.085482e-09	8.692568e+00	1.454250e+02
2.700000e-06	1.242489e-10	1.032985e-09	7.833079e+00	1.382581e+02
2.710000e-06	1.106539e-10	9.777230e-10	6.972362e+00	1.308885e+02
2.720000e-06	9.703710e-11	9.218957e-10	6.110195e+00	1.233106e+02
2.730000e-06	8.339309e-11	8.663327e-10	5.246384e+00	1.155202e+02
2.740000e-06	6.972541e-11	8.083702e-10	4.381161e+00	1.075147e+02
2.750000e-06	5.604515e-11	7.476231e-10	3.515129e+00	9.929282e+01
2.760000e-06	4.235766e-11	6.864365e-10	2.648584e+00	9.085417e+01
2.770000e-06	2.866201e-11	6.249522e-10	1.781509e+00	8.219900e+01
2.780000e-06	1.495734e-11	5.621968e-10	9.139369e-01	7.332814e+01
2.790000e-06	1.247117e-12	4.947796e-10	4.603359e-02	6.424297e+01
2.800000e-06	-1.246303e-11	4.257556e-10	-8.219385e-01	5.494577e+01
2.810000e-06	-2.617224e-11	3.564869e-10	-1.689875e+00	4.544020e+01
2.820000e-06	-3.988062e-11	2.848523e-10	-2.557662e+00	3.573191e+01
2.830000e-06	-5.358167e-11	2.107163e-10	-3.424885e+00	2.582914e+01
2.840000e-06	-6.726771e-11	1.331539e-10	-4.291228e+00	1.574326e+01
2.850000e-06	-8.093666e-11	5.562616e-11	-5.156606e+00	5.489029e+00
2.860000e-06	-9.459158e-11	-1.954046e-11	-6.021080e+00	-4.915301e+00
2.870000e-06	-1.082321e-10	-9.441604e-11	-6.884494e+00	-1.544811e+01
2.880000e-06	-1.218494e-10	-1.716324e-10	-7.746377e+00	-2.608477e+01
2.890000e-06	-1.354311e-10	-2.510873e-10	-8.606103e+00	-3.679801e+01
2.900000e-06	-1.489692e-10	-3.299943e-10	-9.463071e+00	-4.755850e+01
2.910000e-06	-1.624631e-10	-4.087131e-10	-1.031719e+01	-5.833523e+01
