# Temperatura_=_20.0
# Concentracion g/m^3_=_10000.0
# C_Vs_to_Am_M_A/Vsm_=_116720831517.84952
# pendiente_HvsI_1/m_=_3716.3
# ordenada_HvsI_A/m_=_1297.0
# frecuencia_Hz_=_268390.6210715362
# Promedio de 29 ciclos

Tiempo_(s)	Campo_(V.s)	Magnetizacion_(V.s)	Campo_(kA/m)	Magnetizacion_(A/m)
0.000000e+00	-2.685340e-10	-1.227810e-09	-1.797823e+01	-1.592927e+02
1.000000e-08	-2.684950e-10	-1.227540e-09	-1.797563e+01	-1.595543e+02
2.000000e-08	-2.684009e-10	-1.228389e-09	-1.796935e+01	-1.597941e+02
3.000000e-08	-2.682317e-10	-1.229663e-09	-1.795804e+01	-1.599989e+02
4.000000e-08	-2.679751e-10	-1.231270e-09	-1.794089e+01	-1.601529e+02
5.000000e-08	-2.676304e-10	-1.232696e-09	-1.791788e+01	-1.602416e+02
6.000000e-08	-2.672088e-10	-1.230002e-09	-1.788967e+01	-1.602552e+02
7.000000e-08	-2.667128e-10	-1.212392e-09	-1.785647e+01	-1.601920e+02
8.000000e-08	-2.661154e-10	-1.223862e-09	-1.781653e+01	-1.600599e+02
9.000000e-08	-2.654050e-10	-1.307571e-09	-1.776907e+01	-1.598760e+02
1.000000e-07	-2.646382e-10	-1.271604e-09	-1.771775e+01	-1.596653e+02
1.100000e-07	-2.638651e-10	-1.138896e-09	-1.766593e+01	-1.594560e+02
1.200000e-07	-2.630453e-10	-1.164183e-09	-1.761103e+01	-1.592755e+02
1.300000e-07	-2.621100e-10	-1.323776e-09	-1.754852e+01	-1.591454e+02
1.400000e-07	-2.610831e-10	-1.283138e-09	-1.747985e+01	-1.590769e+02
1.500000e-07	-2.600120e-10	-1.126664e-09	-1.740809e+01	-1.590684e+02
1.600000e-07	-2.588389e-10	-1.201424e-09	-1.732959e+01	-1.591050e+02
1.700000e-07	-2.575388e-10	-1.340164e-09	-1.724270e+01	-1.591600e+02
1.800000e-07	-2.561788e-10	-1.194112e-09	-1.715170e+01	-1.591990e+02
1.900000e-07	-2.547739e-10	-1.075094e-09	-1.705762e+01	-1.591844e+02
2.000000e-07	-2.532574e-10	-1.259216e-09	-1.695618e+01	-1.590814e+02
2.100000e-07	-2.516226e-10	-1.283903e-09	-1.684693e+01	-1.588628e+02
2.200000e-07	-2.499168e-10	-1.111856e-09	-1.673282e+01	-1.585131e+02
2.300000e-07	-2.481396e-10	-1.152145e-09	-1.661391e+01	-1.580297e+02
2.400000e-07	-2.463003e-10	-1.277909e-09	-1.649085e+01	-1.574229e+02
2.500000e-07	-2.444146e-10	-1.167089e-09	-1.636463e+01	-1.567134e+02
2.600000e-07	-2.424565e-10	-1.122163e-09	-1.623362e+01	-1.559277e+02
2.700000e-07	-2.404200e-10	-1.222837e-09	-1.609735e+01	-1.550942e+02
2.800000e-07	-2.383381e-10	-1.163876e-09	-1.595797e+01	-1.542379e+02
2.900000e-07	-2.362007e-10	-1.079850e-09	-1.581488e+01	-1.533772e+02
3.000000e-07	-2.339749e-10	-1.193094e-09	-1.566591e+01	-1.525214e+02
3.100000e-07	-2.316814e-10	-1.201278e-09	-1.551241e+01	-1.516708e+02
3.200000e-07	-2.293490e-10	-1.080610e-09	-1.535621e+01	-1.508175e+02
3.300000e-07	-2.269655e-10	-1.108669e-09	-1.519662e+01	-1.499488e+02
3.400000e-07	-2.245235e-10	-1.171583e-09	-1.503317e+01	-1.490497e+02
3.500000e-07	-2.220206e-10	-1.118292e-09	-1.486565e+01	-1.481068e+02
3.600000e-07	-2.194284e-10	-1.075711e-09	-1.469223e+01	-1.471107e+02
3.700000e-07	-2.167420e-10	-1.104795e-09	-1.451245e+01	-1.460573e+02
3.800000e-07	-2.139832e-10	-1.096851e-09	-1.432776e+01	-1.449484e+02
3.900000e-07	-2.111666e-10	-1.103295e-09	-1.413916e+01	-1.437904e+02
4.000000e-07	-2.083059e-10	-1.082260e-09	-1.394763e+01	-1.425923e+02
4.100000e-07	-2.054050e-10	-1.042040e-09	-1.375339e+01	-1.413638e+02
4.200000e-07	-2.024505e-10	-1.047618e-09	-1.355558e+01	-1.401128e+02
4.300000e-07	-1.994327e-10	-1.058356e-09	-1.335360e+01	-1.388441e+02
4.400000e-07	-1.963558e-10	-1.036044e-09	-1.314767e+01	-1.375585e+02
4.500000e-07	-1.932253e-10	-1.020855e-09	-1.293814e+01	-1.362532e+02
4.600000e-07	-1.900498e-10	-1.014258e-09	-1.272554e+01	-1.349229e+02
4.700000e-07	-1.868384e-10	-9.970348e-10	-1.251048e+01	-1.335611e+02
4.800000e-07	-1.835917e-10	-1.012345e-09	-1.229307e+01	-1.321623e+02
4.900000e-07	-1.803066e-10	-9.880698e-10	-1.207311e+01	-1.307228e+02
5.000000e-07	-1.769735e-10	-9.426713e-10	-1.185000e+01	-1.292418e+02
5.100000e-07	-1.735670e-10	-9.479383e-10	-1.162207e+01	-1.277213e+02
5.200000e-07	-1.700688e-10	-9.671336e-10	-1.138803e+01	-1.261657e+02
5.300000e-07	-1.664957e-10	-9.387059e-10	-1.114887e+01	-1.245801e+02
5.400000e-07	-1.628781e-10	-9.101995e-10	-1.090665e+01	-1.229696e+02
5.500000e-07	-1.592333e-10	-9.062327e-10	-1.066260e+01	-1.213371e+02
5.600000e-07	-1.555591e-10	-8.947997e-10	-1.041661e+01	-1.196832e+02
5.700000e-07	-1.518447e-10	-8.895264e-10	-1.016798e+01	-1.180055e+02
5.800000e-07	-1.480855e-10	-8.713227e-10	-9.916392e+00	-1.162987e+02
5.900000e-07	-1.442847e-10	-8.436431e-10	-9.661981e+00	-1.145561e+02
6.000000e-07	-1.404452e-10	-8.318800e-10	-9.404939e+00	-1.127706e+02
6.100000e-07	-1.365620e-10	-8.372166e-10	-9.145019e+00	-1.109360e+02
6.200000e-07	-1.326318e-10	-8.214179e-10	-8.881993e+00	-1.090484e+02
6.300000e-07	-1.286632e-10	-7.884688e-10	-8.616345e+00	-1.071069e+02
6.400000e-07	-1.246684e-10	-7.683141e-10	-8.348876e+00	-1.051141e+02
6.500000e-07	-1.206515e-10	-7.636744e-10	-8.079898e+00	-1.030751e+02
6.600000e-07	-1.166123e-10	-7.592486e-10	-7.809420e+00	-1.009974e+02
6.700000e-07	-1.125511e-10	-7.344830e-10	-7.537497e+00	-9.888934e+01
6.800000e-07	-1.084660e-10	-7.087119e-10	-7.263984e+00	-9.675867e+01
6.900000e-07	-1.043470e-10	-6.954406e-10	-6.988244e+00	-9.461177e+01
7.000000e-07	-1.001802e-10	-6.874615e-10	-6.709390e+00	-9.245256e+01
7.100000e-07	-9.596240e-11	-6.668567e-10	-6.427156e+00	-9.028216e+01
7.200000e-07	-9.170218e-11	-6.395383e-10	-6.142095e+00	-8.809892e+01
7.300000e-07	-8.740452e-11	-6.206656e-10	-5.854566e+00	-8.589884e+01
7.400000e-07	-8.306596e-11	-6.128702e-10	-5.564272e+00	-8.367639e+01
7.500000e-07	-7.868842e-11	-6.044611e-10	-5.271323e+00	-8.142536e+01
7.600000e-07	-7.428753e-11	-5.779205e-10	-4.976741e+00	-7.913988e+01
7.700000e-07	-6.987531e-11	-5.483905e-10	-4.681350e+00	-7.681519e+01
7.800000e-07	-6.545257e-11	-5.318568e-10	-4.385214e+00	-7.444834e+01
7.900000e-07	-6.101669e-11	-5.226459e-10	-4.088159e+00	-7.203851e+01
8.000000e-07	-5.656829e-11	-5.018379e-10	-3.790283e+00	-6.958708e+01
8.100000e-07	-5.211429e-11	-4.745223e-10	-3.492038e+00	-6.709746e+01
8.200000e-07	-4.765684e-11	-4.539351e-10	-3.193556e+00	-6.457458e+01
8.300000e-07	-4.318955e-11	-4.416975e-10	-2.894448e+00	-6.202428e+01
8.400000e-07	-3.870888e-11	-4.275500e-10	-2.594465e+00	-5.945253e+01
8.500000e-07	-3.422116e-11	-4.008621e-10	-2.293970e+00	-5.686461e+01
8.600000e-07	-2.973051e-11	-3.730146e-10	-1.993279e+00	-5.426438e+01
8.700000e-07	-2.523045e-11	-3.540857e-10	-1.691992e+00	-5.165369e+01
8.800000e-07	-2.071748e-11	-3.412518e-10	-1.389869e+00	-4.903203e+01
8.900000e-07	-1.619721e-11	-3.202291e-10	-1.087249e+00	-4.639647e+01
9.000000e-07	-1.167821e-11	-2.923004e-10	-7.846707e-01	-4.374203e+01
9.100000e-07	-7.161833e-12	-2.685335e-10	-4.822680e-01	-4.106227e+01
9.200000e-07	-2.637978e-12	-2.533737e-10	-1.794512e-01	-3.835021e+01
9.300000e-07	1.896261e-12	-2.386192e-10	1.240309e-01	-3.559935e+01
9.400000e-07	6.427831e-12	-2.138362e-10	4.274586e-01	-3.280468e+01
9.500000e-07	1.094935e-11	-1.869272e-10	7.302525e-01	-2.996351e+01
9.600000e-07	1.546793e-11	-1.663889e-10	1.032758e+00	-2.707588e+01
9.700000e-07	1.998794e-11	-1.500205e-10	1.335310e+00	-2.414463e+01
9.800000e-07	2.450565e-11	-1.266522e-10	1.637758e+00	-2.117488e+01
9.900000e-07	2.901415e-11	-9.671773e-11	1.939665e+00	-1.817325e+01
1.000000e-06	3.350978e-11	-6.997568e-11	2.240714e+00	-1.514667e+01
1.010000e-06	3.799846e-11	-5.127263e-11	2.541225e+00	-1.210126e+01
1.020000e-06	4.248341e-11	-3.271585e-11	2.841464e+00	-9.041369e+00
1.030000e-06	4.695860e-11	-7.168313e-12	3.141136e+00	-5.968932e+00
1.040000e-06	5.142102e-11	1.912569e-11	3.439993e+00	-2.883420e+00
1.050000e-06	5.587485e-11	4.081905e-11	3.738260e+00	2.177206e-01
1.060000e-06	6.032295e-11	5.918495e-11	4.036133e+00	3.338143e+00
1.070000e-06	6.476364e-11	8.239510e-11	4.333521e+00	6.481411e+00
1.080000e-06	6.919433e-11	1.104599e-10	4.630267e+00	9.649763e+00
1.090000e-06	7.361297e-11	1.367175e-10	4.926217e+00	1.284311e+01
1.100000e-06	7.801703e-11	1.571180e-10	5.221114e+00	1.605847e+01
1.110000e-06	8.240055e-11	1.773451e-10	5.514534e+00	1.929000e+01
1.120000e-06	8.675244e-11	2.043406e-10	5.805876e+00	2.252956e+01
1.130000e-06	9.105887e-11	2.341114e-10	6.094215e+00	2.576780e+01
1.140000e-06	9.531226e-11	2.583047e-10	6.378907e+00	2.899549e+01
1.150000e-06	9.951367e-11	2.777984e-10	6.660065e+00	3.220483e+01
1.160000e-06	1.036665e-10	3.008369e-10	6.938003e+00	3.539040e+01
1.170000e-06	1.077763e-10	3.270352e-10	7.213148e+00	3.854973e+01
1.180000e-06	1.118539e-10	3.520874e-10	7.486222e+00	4.168313e+01
1.190000e-06	1.159101e-10	3.726934e-10	7.757859e+00	4.479300e+01
1.200000e-06	1.199489e-10	3.944314e-10	8.028310e+00	4.788271e+01
1.210000e-06	1.239663e-10	4.205895e-10	8.297360e+00	5.095522e+01
1.220000e-06	1.279562e-10	4.470005e-10	8.564586e+00	5.401193e+01
1.230000e-06	1.319112e-10	4.689887e-10	8.829409e+00	5.705174e+01
1.240000e-06	1.358273e-10	4.866323e-10	9.091558e+00	6.007083e+01
1.250000e-06	1.397046e-10	5.068278e-10	9.351144e+00	6.306291e+01
1.260000e-06	1.435427e-10	5.302496e-10	9.608166e+00	6.602013e+01
1.270000e-06	1.473409e-10	5.518724e-10	9.862555e+00	6.893428e+01
1.280000e-06	1.510992e-10	5.685417e-10	1.011426e+01	7.179809e+01
1.290000e-06	1.548194e-10	5.846299e-10	1.036336e+01	7.460636e+01
1.300000e-06	1.585043e-10	6.049122e-10	1.061008e+01	7.735661e+01
1.310000e-06	1.621597e-10	6.274662e-10	1.085486e+01	8.004927e+01
1.320000e-06	1.657885e-10	6.461318e-10	1.109787e+01	8.268716e+01
1.330000e-06	1.693818e-10	6.618483e-10	1.133847e+01	8.527467e+01
1.340000e-06	1.729201e-10	6.805615e-10	1.157538e+01	8.781661e+01
1.350000e-06	1.763847e-10	7.011220e-10	1.180734e+01	9.031712e+01
1.360000e-06	1.797676e-10	7.187932e-10	1.203381e+01	9.277886e+01
1.370000e-06	1.830805e-10	7.326768e-10	1.225558e+01	9.520264e+01
1.380000e-06	1.863461e-10	7.471573e-10	1.247422e+01	9.758755e+01
1.390000e-06	1.895761e-10	7.657484e-10	1.269050e+01	9.993149e+01
1.400000e-06	1.927644e-10	7.862804e-10	1.290403e+01	1.022320e+02
1.410000e-06	1.959001e-10	8.042617e-10	1.311404e+01	1.044871e+02
1.420000e-06	1.989807e-10	8.193525e-10	1.332031e+01	1.066960e+02
1.430000e-06	2.020063e-10	8.347848e-10	1.352290e+01	1.088592e+02
1.440000e-06	2.049741e-10	8.514828e-10	1.372162e+01	1.109785e+02
1.450000e-06	2.078877e-10	8.674970e-10	1.391672e+01	1.130563e+02
1.460000e-06	2.107579e-10	8.807631e-10	1.410891e+01	1.150949e+02
1.470000e-06	2.135887e-10	8.933500e-10	1.429844e+01	1.170956e+02
1.480000e-06	2.163654e-10	9.082816e-10	1.448436e+01	1.190583e+02
1.490000e-06	2.190597e-10	9.249556e-10	1.466476e+01	1.209808e+02
1.500000e-06	2.216569e-10	9.399099e-10	1.483868e+01	1.228598e+02
1.510000e-06	2.241703e-10	9.518900e-10	1.500703e+01	1.246911e+02
1.520000e-06	2.266210e-10	9.643106e-10	1.517116e+01	1.264709e+02
1.530000e-06	2.290152e-10	9.785265e-10	1.533148e+01	1.281965e+02
1.540000e-06	2.313467e-10	9.918907e-10	1.548761e+01	1.298679e+02
1.550000e-06	2.336154e-10	1.001964e-09	1.563955e+01	1.314871e+02
1.560000e-06	2.358230e-10	1.010978e-09	1.578739e+01	1.330585e+02
1.570000e-06	2.379673e-10	1.022756e-09	1.593099e+01	1.345880e+02
1.580000e-06	2.400550e-10	1.036578e-09	1.607083e+01	1.360812e+02
1.590000e-06	2.420959e-10	1.048454e-09	1.620752e+01	1.375425e+02
1.600000e-06	2.440850e-10	1.058326e-09	1.634070e+01	1.389734e+02
1.610000e-06	2.460052e-10	1.068072e-09	1.646925e+01	1.403722e+02
1.620000e-06	2.478477e-10	1.078324e-09	1.659258e+01	1.417336e+02
1.630000e-06	2.496205e-10	1.088606e-09	1.671123e+01	1.430498e+02
1.640000e-06	2.513298e-10	1.097450e-09	1.682563e+01	1.443116e+02
1.650000e-06	2.529642e-10	1.105560e-09	1.693500e+01	1.455107e+02
1.660000e-06	2.545131e-10	1.115006e-09	1.703866e+01	1.466412e+02
1.670000e-06	2.559813e-10	1.125173e-09	1.713695e+01	1.477012e+02
1.680000e-06	2.573763e-10	1.133465e-09	1.723037e+01	1.486932e+02
1.690000e-06	2.586999e-10	1.139826e-09	1.731899e+01	1.496242e+02
1.700000e-06	2.599544e-10	1.145928e-09	1.740299e+01	1.505038e+02
1.710000e-06	2.611305e-10	1.153088e-09	1.748173e+01	1.513431e+02
1.720000e-06	2.622044e-10	1.161081e-09	1.755369e+01	1.521518e+02
1.730000e-06	2.631715e-10	1.167974e-09	1.761853e+01	1.529365e+02
1.740000e-06	2.640560e-10	1.173852e-09	1.767781e+01	1.536993e+02
1.750000e-06	2.648776e-10	1.180124e-09	1.773287e+01	1.544374e+02
1.760000e-06	2.656334e-10	1.186520e-09	1.778354e+01	1.551437e+02
1.770000e-06	2.663168e-10	1.192096e-09	1.782935e+01	1.558088e+02
1.780000e-06	2.669266e-10	1.195856e-09	1.787019e+01	1.564229e+02
1.790000e-06	2.674642e-10	1.198781e-09	1.790621e+01	1.569788e+02
1.800000e-06	2.679412e-10	1.202446e-09	1.793820e+01	1.574730e+02
1.810000e-06	2.683627e-10	1.206585e-09	1.796646e+01	1.579078e+02
1.820000e-06	2.687069e-10	1.211274e-09	1.798955e+01	1.582900e+02
1.830000e-06	2.689479e-10	1.216296e-09	1.800573e+01	1.586306e+02
1.840000e-06	2.690893e-10	1.220444e-09	1.801524e+01	1.589416e+02
1.850000e-06	2.691563e-10	1.224132e-09	1.801981e+01	1.592334e+02
1.860000e-06	2.691607e-10	1.227052e-09	1.802016e+01	1.595126e+02
1.870000e-06	2.690987e-10	1.227098e-09	1.801604e+01	1.597794e+02
1.880000e-06	2.689688e-10	1.226901e-09	1.800738e+01	1.600274e+02
1.890000e-06	2.687716e-10	1.227772e-09	1.799422e+01	1.602446e+02
1.900000e-06	2.685083e-10	1.229798e-09	1.797662e+01	1.604156e+02
1.910000e-06	2.681884e-10	1.232421e-09	1.795525e+01	1.605253e+02
1.920000e-06	2.678182e-10	1.238124e-09	1.793052e+01	1.605620e+02
1.930000e-06	2.673853e-10	1.259774e-09	1.790156e+01	1.605214e+02
1.940000e-06	2.668525e-10	1.229152e-09	1.786595e+01	1.604086e+02
1.950000e-06	2.661756e-10	1.135562e-09	1.782075e+01	1.602382e+02
1.960000e-06	2.653799e-10	1.240840e-09	1.776761e+01	1.600330e+02
1.970000e-06	2.645599e-10	1.321385e-09	1.771274e+01	1.598210e+02
1.980000e-06	2.637314e-10	1.226193e-09	1.765722e+01	1.596302e+02
1.990000e-06	2.628103e-10	1.128965e-09	1.759558e+01	1.594843e+02
2.000000e-06	2.617736e-10	1.216346e-09	1.752624e+01	1.593980e+02
2.010000e-06	2.606991e-10	1.275122e-09	1.745422e+01	1.593735e+02
2.020000e-06	2.595871e-10	1.099118e-09	1.737971e+01	1.593998e+02
2.030000e-06	2.583401e-10	1.072572e-09	1.729637e+01	1.594534e+02
2.040000e-06	2.569704e-10	1.271446e-09	1.720486e+01	1.595015e+02
2.050000e-06	2.555457e-10	1.272326e-09	1.710953e+01	1.595070e+02
2.060000e-06	2.540453e-10	1.050759e-09	1.700913e+01	1.594336e+02
2.070000e-06	2.524497e-10	1.148081e-09	1.690239e+01	1.592515e+02
2.080000e-06	2.508045e-10	1.321686e-09	1.679220e+01	1.589415e+02
2.090000e-06	2.491077e-10	1.155300e-09	1.667860e+01	1.584972e+02
2.100000e-06	2.473123e-10	1.057845e-09	1.655851e+01	1.579253e+02
2.110000e-06	2.454518e-10	1.225700e-09	1.643400e+01	1.572438e+02
2.120000e-06	2.435594e-10	1.210369e-09	1.630726e+01	1.564780e+02
2.130000e-06	2.415824e-10	1.087775e-09	1.617495e+01	1.556562e+02
2.140000e-06	2.395088e-10	1.177239e-09	1.603626e+01	1.548049e+02
2.150000e-06	2.373910e-10	1.210732e-09	1.589452e+01	1.539447e+02
2.160000e-06	2.352076e-10	1.065900e-09	1.574839e+01	1.530877e+02
2.170000e-06	2.329224e-10	1.104729e-09	1.559550e+01	1.522367e+02
2.180000e-06	2.305658e-10	1.194998e-09	1.543777e+01	1.513860e+02
2.190000e-06	2.281509e-10	1.096605e-09	1.527612e+01	1.505239e+02
2.200000e-06	2.256703e-10	1.070622e-09	1.511009e+01	1.496358e+02
2.210000e-06	2.231367e-10	1.136785e-09	1.494048e+01	1.487075e+02
2.220000e-06	2.205447e-10	1.106817e-09	1.476695e+01	1.477281e+02
2.230000e-06	2.178805e-10	1.073266e-09	1.458864e+01	1.466921e+02
2.240000e-06	2.151670e-10	1.083254e-09	1.440697e+01	1.455996e+02
2.250000e-06	2.124142e-10	1.051368e-09	1.422265e+01	1.444556e+02
2.260000e-06	2.096030e-10	1.065619e-09	1.403446e+01	1.432688e+02
2.270000e-06	2.067209e-10	1.086037e-09	1.384155e+01	1.420488e+02
2.280000e-06	2.037529e-10	1.028225e-09	1.364290e+01	1.408044e+02
2.290000e-06	2.007016e-10	1.026165e-09	1.343864e+01	1.395412e+02
2.300000e-06	1.975966e-10	1.045666e-09	1.323077e+01	1.382613e+02
2.310000e-06	1.944463e-10	1.007253e-09	1.301988e+01	1.369628e+02
2.320000e-06	1.912433e-10	1.006250e-09	1.280548e+01	1.356410e+02
2.330000e-06	1.879973e-10	1.008699e-09	1.258817e+01	1.342897e+02
2.340000e-06	1.847081e-10	9.623694e-10	1.236798e+01	1.329028e+02
2.350000e-06	1.813700e-10	9.773184e-10	1.214451e+01	1.314760e+02
2.360000e-06	1.779888e-10	9.956568e-10	1.191812e+01	1.300076e+02
2.370000e-06	1.745582e-10	9.415458e-10	1.168843e+01	1.284988e+02
2.380000e-06	1.710751e-10	9.264499e-10	1.145523e+01	1.269535e+02
2.390000e-06	1.675553e-10	9.382694e-10	1.121953e+01	1.253768e+02
2.400000e-06	1.640036e-10	9.203049e-10	1.098173e+01	1.237737e+02
2.410000e-06	1.604121e-10	9.076403e-10	1.074129e+01	1.221481e+02
2.420000e-06	1.567759e-10	8.965326e-10	1.049785e+01	1.205012e+02
2.430000e-06	1.530795e-10	8.733848e-10	1.025045e+01	1.188314e+02
2.440000e-06	1.493102e-10	8.746925e-10	9.998231e+00	1.171344e+02
2.450000e-06	1.454755e-10	8.732309e-10	9.741621e+00	1.154036e+02
2.460000e-06	1.415879e-10	8.467945e-10	9.481405e+00	1.136319e+02
2.470000e-06	1.376634e-10	8.258092e-10	9.218629e+00	1.118127e+02
2.480000e-06	1.337151e-10	8.153614e-10	8.954250e+00	1.099414e+02
2.490000e-06	1.297378e-10	8.103405e-10	8.687973e+00	1.080162e+02
2.500000e-06	1.257228e-10	7.956634e-10	8.419208e+00	1.060385e+02
2.510000e-06	1.216729e-10	7.701423e-10	8.148112e+00	1.040129e+02
2.520000e-06	1.175924e-10	7.519425e-10	7.874919e+00	1.019463e+02
2.530000e-06	1.134817e-10	7.500401e-10	7.599713e+00	9.984686e+01
2.540000e-06	1.093394e-10	7.394333e-10	7.322422e+00	9.772265e+01
2.550000e-06	1.051677e-10	7.134760e-10	7.043110e+00	9.558057e+01
2.560000e-06	1.009696e-10	6.922844e-10	6.762007e+00	9.342531e+01
2.570000e-06	9.674168e-11	6.813885e-10	6.478954e+00	9.125884e+01
2.580000e-06	9.248061e-11	6.717955e-10	6.193719e+00	8.908028e+01
2.590000e-06	8.819086e-11	6.541406e-10	5.906541e+00	8.688624e+01
2.600000e-06	8.388197e-11	6.306976e-10	5.618067e+00	8.467156e+01
2.610000e-06	7.956164e-11	6.107581e-10	5.328807e+00	8.243011e+01
2.620000e-06	7.523109e-11	6.042695e-10	5.038855e+00	8.015584e+01
2.630000e-06	7.088982e-11	5.934870e-10	4.748178e+00	7.784359e+01
2.640000e-06	6.653899e-11	5.678553e-10	4.456837e+00	7.548984e+01
2.650000e-06	6.217762e-11	5.447420e-10	4.164800e+00	7.309311e+01
2.660000e-06	5.780544e-11	5.307664e-10	3.872105e+00	7.065415e+01
2.670000e-06	5.341990e-11	5.181175e-10	3.578556e+00	6.817583e+01
2.680000e-06	4.901858e-11	4.991937e-10	3.283946e+00	6.566269e+01
2.690000e-06	4.460733e-11	4.760448e-10	2.988672e+00	6.312037e+01
2.700000e-06	4.018849e-11	4.561926e-10	2.692893e+00	6.055490e+01
2.710000e-06	3.575397e-11	4.422958e-10	2.396058e+00	5.797183e+01
2.720000e-06	3.130243e-11	4.248152e-10	2.098037e+00	5.537551e+01
2.730000e-06	2.684346e-11	4.019802e-10	1.799449e+00	5.276843e+01
2.740000e-06	2.237924e-11	3.791278e-10	1.500506e+00	5.015077e+01
2.750000e-06	1.790669e-11	3.603019e-10	1.201076e+00	4.752031e+01
2.760000e-06	1.342327e-11	3.455988e-10	9.009662e-01	4.487260e+01
2.770000e-06	8.931671e-12	3.260475e-10	6.003037e-01	4.220156e+01
2.780000e-06	4.439637e-12	3.014598e-10	2.995757e-01	3.950024e+01
2.790000e-06	-5.014262e-14	2.798841e-10	-9.977344e-04	3.676191e+01
2.800000e-06	-4.542802e-12	2.634427e-10	-3.017116e-01	3.398103e+01
2.810000e-06	-9.039878e-12	2.443475e-10	-6.027191e-01	3.115415e+01
2.820000e-06	-1.352990e-11	2.196045e-10	-9.033101e-01	2.828051e+01
2.830000e-06	-1.800812e-11	1.936252e-10	-1.203114e+00	2.536215e+01
2.840000e-06	-2.248299e-11	1.732549e-10	-1.502654e+00	2.240361e+01
2.850000e-06	-2.695815e-11	1.559680e-10	-1.802211e+00	1.941116e+01
2.860000e-06	-3.142586e-11	1.325079e-10	-2.101314e+00	1.639177e+01
2.870000e-06	-3.587700e-11	1.043949e-10	-2.399306e+00	1.335193e+01
2.880000e-06	-4.030879e-11	7.931482e-11	-2.696004e+00	1.029656e+01
2.890000e-06	-4.472658e-11	5.924742e-11	-2.991796e+00	7.228341e+00
2.900000e-06	-4.913522e-11	3.756799e-11	-3.286968e+00	4.147441e+00
2.910000e-06	-5.352909e-11	1.194847e-11	-3.581167e+00	1.051820e+00
