# Temperatura_=_20.0
# Concentracion g/m^3_=_10000.0
# C_Vs_to_Am_M_A/Vsm_=_116720831517.84952
# pendiente_HvsI_1/m_=_3716.3
# ordenada_HvsI_A/m_=_1297.0
# frecuencia_Hz_=_268245.7278312988
# Promedio de 27 ciclos

Tiempo_(s)	Campo_(V.s)	Magnetizacion_(V.s)	Campo_(kA/m)	Magnetizacion_(A/m)
0.000000e+00	-5.405448e-10	-4.195103e-09	-3.470633e+01	-5.042670e+02
1.000000e-08	-5.404121e-10	-4.195332e-09	-3.469810e+01	-5.041738e+02
2.000000e-08	-5.401197e-10	-4.196022e-09	-3.467964e+01	-5.039638e+02
3.000000e-08	-5.396792e-10	-4.194828e-09	-3.465162e+01	-5.036530e+02
4.000000e-08	-5.391167e-10	-4.192442e-09	-3.461573e+01	-5.032697e+02
5.000000e-08	-5.384329e-10	-4.190784e-09	-3.457209e+01	-5.028491e+02
6.000000e-08	-5.376127e-10	-4.187920e-09	-3.451970e+01	-5.024269e+02
7.000000e-08	-5.366413e-10	-4.182204e-09	-3.445764e+01	-5.020316e+02
8.000000e-08	-5.354969e-10	-4.172130e-09	-3.438455e+01	-5.016779e+02
9.000000e-08	-5.341491e-10	-4.168415e-09	-3.429844e+01	-5.013631e+02
1.000000e-07	-5.325577e-10	-4.199322e-09	-3.419675e+01	-5.010662e+02
1.100000e-07	-5.307390e-10	-4.222383e-09	-3.408037e+01	-5.007517e+02
1.200000e-07	-5.287906e-10	-4.197148e-09	-3.395545e+01	-5.003756e+02
1.300000e-07	-5.268014e-10	-4.137114e-09	-3.382775e+01	-4.998938e+02
1.400000e-07	-5.247536e-10	-4.087569e-09	-3.369644e+01	-4.992708e+02
1.500000e-07	-5.225458e-10	-4.168842e-09	-3.355505e+01	-4.984868e+02
1.600000e-07	-5.201902e-10	-4.185199e-09	-3.340401e+01	-4.975415e+02
1.700000e-07	-5.177258e-10	-4.044235e-09	-3.324599e+01	-4.964542e+02
1.800000e-07	-5.150712e-10	-4.075062e-09	-3.307595e+01	-4.952601e+02
1.900000e-07	-5.122439e-10	-4.115102e-09	-3.289464e+01	-4.940026e+02
2.000000e-07	-5.093253e-10	-3.993546e-09	-3.270738e+01	-4.927243e+02
2.100000e-07	-5.062882e-10	-4.018658e-09	-3.251262e+01	-4.914581e+02
2.200000e-07	-5.031225e-10	-4.061873e-09	-3.230957e+01	-4.902196e+02
2.300000e-07	-4.998175e-10	-3.957346e-09	-3.209766e+01	-4.890035e+02
2.400000e-07	-4.963173e-10	-3.989923e-09	-3.187332e+01	-4.877841e+02
2.500000e-07	-4.926620e-10	-4.027015e-09	-3.163883e+01	-4.865200e+02
2.600000e-07	-4.889063e-10	-3.947989e-09	-3.139787e+01	-4.851613e+02
2.700000e-07	-4.850165e-10	-3.986547e-09	-3.114840e+01	-4.836599e+02
2.800000e-07	-4.809810e-10	-3.991167e-09	-3.088954e+01	-4.819781e+02
2.900000e-07	-4.767992e-10	-3.919474e-09	-3.062134e+01	-4.800957e+02
3.000000e-07	-4.724588e-10	-3.921167e-09	-3.034297e+01	-4.780136e+02
3.100000e-07	-4.679694e-10	-3.893625e-09	-3.005500e+01	-4.757530e+02
3.200000e-07	-4.633260e-10	-3.862478e-09	-2.975714e+01	-4.733505e+02
3.300000e-07	-4.585436e-10	-3.885328e-09	-2.945029e+01	-4.708508e+02
3.400000e-07	-4.536584e-10	-3.855018e-09	-2.913681e+01	-4.682979e+02
3.500000e-07	-4.486509e-10	-3.815448e-09	-2.881557e+01	-4.657260e+02
3.600000e-07	-4.434707e-10	-3.826449e-09	-2.848333e+01	-4.631541e+02
3.700000e-07	-4.381111e-10	-3.803444e-09	-2.813952e+01	-4.605832e+02
3.800000e-07	-4.326073e-10	-3.748571e-09	-2.778636e+01	-4.579968e+02
3.900000e-07	-4.269953e-10	-3.731930e-09	-2.742618e+01	-4.553658e+02
4.000000e-07	-4.212847e-10	-3.727386e-09	-2.705971e+01	-4.526553e+02
4.100000e-07	-4.154477e-10	-3.692617e-09	-2.668520e+01	-4.498318e+02
4.200000e-07	-4.094712e-10	-3.676718e-09	-2.630170e+01	-4.468702e+02
4.300000e-07	-4.033881e-10	-3.655658e-09	-2.591129e+01	-4.437577e+02
4.400000e-07	-3.972075e-10	-3.612990e-09	-2.551467e+01	-4.404954e+02
4.500000e-07	-3.909103e-10	-3.596421e-09	-2.511058e+01	-4.370962e+02
4.600000e-07	-3.845045e-10	-3.572142e-09	-2.469945e+01	-4.335801e+02
4.700000e-07	-3.780081e-10	-3.532406e-09	-2.428249e+01	-4.299682e+02
4.800000e-07	-3.714091e-10	-3.502733e-09	-2.385903e+01	-4.262771e+02
4.900000e-07	-3.646890e-10	-3.478178e-09	-2.342779e+01	-4.225138e+02
5.000000e-07	-3.578590e-10	-3.449846e-09	-2.298944e+01	-4.186738e+02
5.100000e-07	-3.509370e-10	-3.413608e-09	-2.254516e+01	-4.147417e+02
5.200000e-07	-3.439295e-10	-3.371092e-09	-2.209540e+01	-4.106944e+02
5.300000e-07	-3.368367e-10	-3.336500e-09	-2.164015e+01	-4.065061e+02
5.400000e-07	-3.296580e-10	-3.307920e-09	-2.117937e+01	-4.021540e+02
5.500000e-07	-3.223945e-10	-3.270640e-09	-2.071316e+01	-3.976228e+02
5.600000e-07	-3.150290e-10	-3.225669e-09	-2.024048e+01	-3.929074e+02
5.700000e-07	-3.075469e-10	-3.185875e-09	-1.976033e+01	-3.880140e+02
5.800000e-07	-2.999604e-10	-3.147591e-09	-1.927341e+01	-3.829572e+02
5.900000e-07	-2.922803e-10	-3.104606e-09	-1.878047e+01	-3.777559e+02
6.000000e-07	-2.845074e-10	-3.059687e-09	-1.828158e+01	-3.724282e+02
6.100000e-07	-2.766466e-10	-3.008263e-09	-1.777706e+01	-3.669866e+02
6.200000e-07	-2.686962e-10	-2.963341e-09	-1.726679e+01	-3.614337e+02
6.300000e-07	-2.606453e-10	-2.923238e-09	-1.675007e+01	-3.557611e+02
6.400000e-07	-2.525005e-10	-2.874021e-09	-1.622728e+01	-3.499506e+02
6.500000e-07	-2.442800e-10	-2.818253e-09	-1.569960e+01	-3.439765e+02
6.600000e-07	-2.359989e-10	-2.766326e-09	-1.516799e+01	-3.378112e+02
6.700000e-07	-2.276627e-10	-2.719135e-09	-1.463284e+01	-3.314290e+02
6.800000e-07	-2.192661e-10	-2.666297e-09	-1.409384e+01	-3.248112e+02
6.900000e-07	-2.108120e-10	-2.607195e-09	-1.355114e+01	-3.179475e+02
7.000000e-07	-2.023094e-10	-2.544829e-09	-1.300529e+01	-3.108365e+02
7.100000e-07	-1.937602e-10	-2.485060e-09	-1.245645e+01	-3.034839e+02
7.200000e-07	-1.851660e-10	-2.424954e-09	-1.190472e+01	-2.958980e+02
7.300000e-07	-1.765225e-10	-2.359744e-09	-1.134985e+01	-2.880859e+02
7.400000e-07	-1.678237e-10	-2.290999e-09	-1.079145e+01	-2.800490e+02
7.500000e-07	-1.590763e-10	-2.223432e-09	-1.022989e+01	-2.717805e+02
7.600000e-07	-1.502925e-10	-2.157992e-09	-9.665955e+00	-2.632642e+02
7.700000e-07	-1.414765e-10	-2.085782e-09	-9.099940e+00	-2.544761e+02
7.800000e-07	-1.326330e-10	-2.004885e-09	-8.532180e+00	-2.453871e+02
7.900000e-07	-1.237692e-10	-1.921748e-09	-7.963117e+00	-2.359673e+02
8.000000e-07	-1.148837e-10	-1.841805e-09	-7.392664e+00	-2.261900e+02
8.100000e-07	-1.059698e-10	-1.760541e-09	-6.820427e+00	-2.160344e+02
8.200000e-07	-9.701991e-11	-1.673264e-09	-6.245912e+00	-2.054873e+02
8.300000e-07	-8.803620e-11	-1.581071e-09	-5.669232e+00	-1.945419e+02
8.400000e-07	-7.902948e-11	-1.489265e-09	-5.091073e+00	-1.831957e+02
8.500000e-07	-7.000249e-11	-1.396569e-09	-4.511597e+00	-1.714463e+02
8.600000e-07	-6.094875e-11	-1.294972e-09	-3.930400e+00	-1.592881e+02
8.700000e-07	-5.186768e-11	-1.184626e-09	-3.347449e+00	-1.467090e+02
8.800000e-07	-4.276707e-11	-1.070899e-09	-2.763213e+00	-1.336896e+02
8.900000e-07	-3.365180e-11	-9.580842e-10	-2.178023e+00	-1.202046e+02
9.000000e-07	-2.452267e-11	-8.439530e-10	-1.591936e+00	-1.062265e+02
9.100000e-07	-1.538339e-11	-7.248585e-10	-1.005185e+00	-9.173105e+01
9.200000e-07	-6.239660e-12	-5.996858e-10	-4.181463e-01	-7.670428e+01
9.300000e-07	2.905476e-12	-4.710836e-10	1.689788e-01	-6.114826e+01
9.400000e-07	1.205230e-11	-3.395357e-10	7.562331e-01	-4.508608e+01
9.500000e-07	2.120247e-11	-2.015476e-10	1.343704e+00	-2.856418e+01
9.600000e-07	3.035308e-11	-5.711449e-11	1.931205e+00	-1.165181e+01
9.700000e-07	3.949388e-11	8.930861e-11	2.518102e+00	5.562354e+00
9.800000e-07	4.861659e-11	2.318745e-10	3.103845e+00	2.297579e+01
9.900000e-07	5.772230e-11	3.717124e-10	3.688487e+00	4.047908e+01
1.000000e-06	6.681322e-11	5.134657e-10	4.272165e+00	5.796294e+01
1.010000e-06	7.588623e-11	6.584026e-10	4.854691e+00	7.532443e+01
1.020000e-06	8.493074e-11	8.018358e-10	5.435394e+00	9.247136e+01
1.030000e-06	9.393602e-11	9.409092e-10	6.013597e+00	1.093246e+02
1.040000e-06	1.029020e-10	1.078513e-09	6.589280e+00	1.258185e+02
1.050000e-06	1.118350e-10	1.214218e-09	7.162822e+00	1.418994e+02
1.060000e-06	1.207364e-10	1.343545e-09	7.734381e+00	1.575235e+02
1.070000e-06	1.296058e-10	1.463888e-09	8.303919e+00	1.726546e+02
1.080000e-06	1.384446e-10	1.579148e-09	8.871508e+00	1.872626e+02
1.090000e-06	1.472532e-10	1.694350e-09	9.437173e+00	2.013226e+02
1.100000e-06	1.560246e-10	1.810126e-09	1.000043e+01	2.148152e+02
1.110000e-06	1.647509e-10	1.921294e-09	1.056078e+01	2.277280e+02
1.120000e-06	1.734313e-10	2.024392e-09	1.111821e+01	2.400568e+02
1.130000e-06	1.820669e-10	2.121306e-09	1.167277e+01	2.518068e+02
1.140000e-06	1.906542e-10	2.212750e-09	1.222421e+01	2.629928e+02
1.150000e-06	1.991879e-10	2.298761e-09	1.277220e+01	2.736387e+02
1.160000e-06	2.076696e-10	2.378772e-09	1.331688e+01	2.837751e+02
1.170000e-06	2.161025e-10	2.454636e-09	1.385844e+01	2.934369e+02
1.180000e-06	2.244809e-10	2.530549e-09	1.439651e+01	3.026600e+02
1.190000e-06	2.327915e-10	2.607465e-09	1.493021e+01	3.114779e+02
1.200000e-06	2.410242e-10	2.681438e-09	1.545893e+01	3.199203e+02
1.210000e-06	2.491835e-10	2.749165e-09	1.598296e+01	3.280109e+02
1.220000e-06	2.572720e-10	2.810951e-09	1.650243e+01	3.357687e+02
1.230000e-06	2.652823e-10	2.869164e-09	1.701687e+01	3.432079e+02
1.240000e-06	2.732113e-10	2.924953e-09	1.752610e+01	3.503407e+02
1.250000e-06	2.810615e-10	2.977272e-09	1.803029e+01	3.571787e+02
1.260000e-06	2.888360e-10	3.027934e-09	1.852962e+01	3.637343e+02
1.270000e-06	2.965355e-10	3.080161e-09	1.902411e+01	3.700216e+02
1.280000e-06	3.041522e-10	3.134523e-09	1.951329e+01	3.760563e+02
1.290000e-06	3.116650e-10	3.185133e-09	1.999586e+01	3.818545e+02
1.300000e-06	3.190607e-10	3.227741e-09	2.047091e+01	3.874313e+02
1.310000e-06	3.263536e-10	3.265148e-09	2.093934e+01	3.927994e+02
1.320000e-06	3.335633e-10	3.302216e-09	2.140241e+01	3.979679e+02
1.330000e-06	3.406897e-10	3.339720e-09	2.186013e+01	4.029423e+02
1.340000e-06	3.477234e-10	3.375430e-09	2.231191e+01	4.077251e+02
1.350000e-06	3.546656e-10	3.410310e-09	2.275781e+01	4.123169e+02
1.360000e-06	3.615251e-10	3.446232e-09	2.319839e+01	4.167187e+02
1.370000e-06	3.682923e-10	3.482973e-09	2.363305e+01	4.209335e+02
1.380000e-06	3.749403e-10	3.516959e-09	2.406011e+01	4.249674e+02
1.390000e-06	3.814640e-10	3.545233e-09	2.447918e+01	4.288308e+02
1.400000e-06	3.878835e-10	3.569598e-09	2.489154e+01	4.325369e+02
1.410000e-06	3.942069e-10	3.593804e-09	2.529774e+01	4.361011e+02
1.420000e-06	4.004270e-10	3.619594e-09	2.569731e+01	4.395383e+02
1.430000e-06	4.065460e-10	3.646386e-09	2.609038e+01	4.428614e+02
1.440000e-06	4.125679e-10	3.672724e-09	2.647722e+01	4.460793e+02
1.450000e-06	4.184695e-10	3.698260e-09	2.685638e+01	4.491961e+02
1.460000e-06	4.242276e-10	3.722886e-09	2.722633e+01	4.522115e+02
1.470000e-06	4.298520e-10	3.745340e-09	2.758770e+01	4.551222e+02
1.480000e-06	4.353559e-10	3.765174e-09	2.794133e+01	4.579235e+02
1.490000e-06	4.407382e-10	3.783644e-09	2.828716e+01	4.606116e+02
1.500000e-06	4.459837e-10	3.802980e-09	2.862424e+01	4.631858e+02
1.510000e-06	4.510695e-10	3.824083e-09	2.895111e+01	4.656488e+02
1.520000e-06	4.559959e-10	3.845929e-09	2.926773e+01	4.680073e+02
1.530000e-06	4.607873e-10	3.866260e-09	2.957563e+01	4.702706e+02
1.540000e-06	4.654536e-10	3.884354e-09	2.987549e+01	4.724487e+02
1.550000e-06	4.699975e-10	3.901137e-09	3.016748e+01	4.745503e+02
1.560000e-06	4.744202e-10	3.916235e-09	3.045171e+01	4.765807e+02
1.570000e-06	4.787003e-10	3.929253e-09	3.072681e+01	4.785410e+02
1.580000e-06	4.828293e-10	3.940850e-09	3.099219e+01	4.804281e+02
1.590000e-06	4.868254e-10	3.953377e-09	3.124904e+01	4.822358e+02
1.600000e-06	4.906928e-10	3.968389e-09	3.149763e+01	4.839569e+02
1.610000e-06	4.944337e-10	3.984358e-09	3.173807e+01	4.855860e+02
1.620000e-06	4.980495e-10	3.998752e-09	3.197048e+01	4.871211e+02
1.630000e-06	5.015183e-10	4.011312e-09	3.219349e+01	4.885655e+02
1.640000e-06	5.048351e-10	4.022845e-09	3.240674e+01	4.899273e+02
1.650000e-06	5.080179e-10	4.032992e-09	3.261135e+01	4.912184e+02
1.660000e-06	5.110708e-10	4.040828e-09	3.280761e+01	4.924521e+02
1.670000e-06	5.139959e-10	4.047062e-09	3.299565e+01	4.936398e+02
1.680000e-06	5.167837e-10	4.054953e-09	3.317493e+01	4.947885e+02
1.690000e-06	5.194108e-10	4.065956e-09	3.334392e+01	4.958987e+02
1.700000e-06	5.218808e-10	4.077565e-09	3.350279e+01	4.969639e+02
1.710000e-06	5.242096e-10	4.087085e-09	3.365260e+01	4.979721e+02
1.720000e-06	5.264015e-10	4.095155e-09	3.379361e+01	4.989082e+02
1.730000e-06	5.284638e-10	4.102794e-09	3.392626e+01	4.997579e+02
1.740000e-06	5.303884e-10	4.109047e-09	3.405012e+01	5.005113e+02
1.750000e-06	5.321586e-10	4.113725e-09	3.416411e+01	5.011657e+02
1.760000e-06	5.337717e-10	4.117786e-09	3.426799e+01	5.017271e+02
1.770000e-06	5.352281e-10	4.122382e-09	3.436181e+01	5.022093e+02
1.780000e-06	5.365265e-10	4.127548e-09	3.444551e+01	5.026313e+02
1.790000e-06	5.376518e-10	4.132567e-09	3.451813e+01	5.030132e+02
1.800000e-06	5.385991e-10	4.137165e-09	3.457929e+01	5.033713e+02
1.810000e-06	5.393906e-10	4.141272e-09	3.463040e+01	5.037142e+02
1.820000e-06	5.400383e-10	4.144654e-09	3.467226e+01	5.040400e+02
1.830000e-06	5.405434e-10	4.146794e-09	3.470493e+01	5.043361e+02
1.840000e-06	5.408987e-10	4.147393e-09	3.472805e+01	5.045813e+02
1.850000e-06	5.410876e-10	4.147192e-09	3.474052e+01	5.047506e+02
1.860000e-06	5.411188e-10	4.147497e-09	3.474280e+01	5.048205e+02
1.870000e-06	5.410079e-10	4.147611e-09	3.473595e+01	5.047751e+02
1.880000e-06	5.407651e-10	4.146388e-09	3.472062e+01	5.046107e+02
1.890000e-06	5.403965e-10	4.143450e-09	3.469720e+01	5.043375e+02
1.900000e-06	5.398788e-10	4.141875e-09	3.466426e+01	5.039795e+02
1.910000e-06	5.392053e-10	4.140765e-09	3.462129e+01	5.035697e+02
1.920000e-06	5.383981e-10	4.138113e-09	3.456971e+01	5.031445e+02
1.930000e-06	5.374602e-10	4.136060e-09	3.450975e+01	5.027360e+02
1.940000e-06	5.363895e-10	4.139558e-09	3.444127e+01	5.023650e+02
1.950000e-06	5.351714e-10	4.136373e-09	3.436338e+01	5.020358e+02
1.960000e-06	5.337414e-10	4.083043e-09	3.427206e+01	5.017348e+02
1.970000e-06	5.320473e-10	4.051929e-09	3.416382e+01	5.014317e+02
1.980000e-06	5.301312e-10	4.076017e-09	3.404116e+01	5.010849e+02
1.990000e-06	5.281234e-10	4.146075e-09	3.391230e+01	5.006495e+02
2.000000e-06	5.261202e-10	4.162424e-09	3.378366e+01	5.000858e+02
2.010000e-06	5.240083e-10	4.069925e-09	3.364848e+01	4.993669e+02
2.020000e-06	5.216765e-10	4.113639e-09	3.349916e+01	4.984847e+02
2.030000e-06	5.192511e-10	4.181001e-09	3.334346e+01	4.974508e+02
2.040000e-06	5.167206e-10	4.060480e-09	3.318136e+01	4.962949e+02
2.050000e-06	5.139586e-10	4.049425e-09	3.300451e+01	4.950580e+02
2.060000e-06	5.110603e-10	4.135961e-09	3.281858e+01	4.937840e+02
2.070000e-06	5.080382e-10	4.037511e-09	3.262490e+01	4.925105e+02
2.080000e-06	5.048265e-10	4.023048e-09	3.241904e+01	4.912607e+02
2.090000e-06	5.015285e-10	4.111936e-09	3.220736e+01	4.900376e+02
2.100000e-06	4.981311e-10	4.032947e-09	3.198956e+01	4.888236e+02
2.110000e-06	4.945411e-10	4.048162e-09	3.175945e+01	4.875825e+02
2.120000e-06	4.908176e-10	4.082608e-09	3.152060e+01	4.862670e+02
2.130000e-06	4.869497e-10	3.963997e-09	3.127264e+01	4.848272e+02
2.140000e-06	4.829199e-10	3.992808e-09	3.101417e+01	4.832204e+02
2.150000e-06	4.787793e-10	3.991670e-09	3.074856e+01	4.814187e+02
2.160000e-06	4.744832e-10	3.919457e-09	3.047308e+01	4.794147e+02
2.170000e-06	4.700621e-10	3.979812e-09	3.018937e+01	4.772217e+02
2.180000e-06	4.655505e-10	3.929378e-09	2.989994e+01	4.748709e+02
2.190000e-06	4.608700e-10	3.865770e-09	2.959983e+01	4.724049e+02
2.200000e-06	4.560299e-10	3.903568e-09	2.928934e+01	4.698688e+02
2.210000e-06	4.510472e-10	3.846884e-09	2.896975e+01	4.673015e+02
2.220000e-06	4.459209e-10	3.815438e-09	2.864088e+01	4.647287e+02
2.230000e-06	4.406755e-10	3.822347e-09	2.830434e+01	4.621584e+02
2.240000e-06	4.352783e-10	3.800189e-09	2.795815e+01	4.595809e+02
2.250000e-06	4.297341e-10	3.781992e-09	2.760245e+01	4.569714e+02
2.260000e-06	4.240686e-10	3.734891e-09	2.723895e+01	4.542964e+02
2.270000e-06	4.182876e-10	3.724956e-09	2.686799e+01	4.515212e+02
2.280000e-06	4.124020e-10	3.694041e-09	2.649031e+01	4.486167e+02
2.290000e-06	4.063780e-10	3.657039e-09	2.610385e+01	4.455648e+02
2.300000e-06	4.002189e-10	3.657564e-09	2.570862e+01	4.423612e+02
2.310000e-06	3.939577e-10	3.607193e-09	2.530677e+01	4.390146e+02
2.320000e-06	3.876043e-10	3.591398e-09	2.489900e+01	4.355426e+02
2.330000e-06	3.811630e-10	3.573093e-09	2.448562e+01	4.319667e+02
2.340000e-06	3.746082e-10	3.525368e-09	2.406501e+01	4.283058e+02
2.350000e-06	3.679456e-10	3.503243e-09	2.363743e+01	4.245712e+02
2.360000e-06	3.611878e-10	3.455392e-09	2.320375e+01	4.207630e+02
2.370000e-06	3.543129e-10	3.431617e-09	2.276259e+01	4.168698e+02
2.380000e-06	3.473261e-10	3.409419e-09	2.231420e+01	4.128713e+02
2.390000e-06	3.402451e-10	3.364798e-09	2.185972e+01	4.087420e+02
2.400000e-06	3.330866e-10	3.333990e-09	2.140023e+01	4.044573e+02
2.410000e-06	3.258485e-10	3.294088e-09	2.093568e+01	3.999984e+02
2.420000e-06	3.185109e-10	3.262351e-09	2.046478e+01	3.953562e+02
2.430000e-06	3.110712e-10	3.219300e-09	1.998733e+01	3.905325e+02
2.440000e-06	3.035298e-10	3.174218e-09	1.950333e+01	3.855387e+02
2.450000e-06	2.958963e-10	3.136125e-09	1.901340e+01	3.803927e+02
2.460000e-06	2.881624e-10	3.090190e-09	1.851705e+01	3.751136e+02
2.470000e-06	2.803185e-10	3.058128e-09	1.801361e+01	3.697165e+02
2.480000e-06	2.723849e-10	3.008597e-09	1.750438e+01	3.642082e+02
2.490000e-06	2.643747e-10	2.955838e-09	1.699019e+01	3.585849e+02
2.500000e-06	2.562985e-10	2.911352e-09	1.647174e+01	3.528318e+02
2.510000e-06	2.481553e-10	2.861716e-09	1.594899e+01	3.469259e+02
2.520000e-06	2.399397e-10	2.813628e-09	1.542161e+01	3.408397e+02
2.530000e-06	2.316639e-10	2.756266e-09	1.489032e+01	3.345464e+02
2.540000e-06	2.233395e-10	2.705067e-09	1.435590e+01	3.280240e+02
2.550000e-06	2.149602e-10	2.652607e-09	1.381801e+01	3.212587e+02
2.560000e-06	2.064999e-10	2.594867e-09	1.327500e+01	3.142459e+02
2.570000e-06	1.979474e-10	2.533037e-09	1.272606e+01	3.069885e+02
2.580000e-06	1.893216e-10	2.466990e-09	1.217236e+01	2.994945e+02
2.590000e-06	1.806444e-10	2.407480e-09	1.161532e+01	2.917720e+02
2.600000e-06	1.719262e-10	2.344158e-09	1.105564e+01	2.838249e+02
2.610000e-06	1.631688e-10	2.276913e-09	1.049343e+01	2.756499e+02
2.620000e-06	1.543740e-10	2.204050e-09	9.928787e+00	2.672346e+02
2.630000e-06	1.455454e-10	2.131465e-09	9.361958e+00	2.585578e+02
2.640000e-06	1.366840e-10	2.061845e-09	8.793064e+00	2.495919e+02
2.650000e-06	1.277889e-10	1.985936e-09	8.222039e+00	2.403071e+02
2.660000e-06	1.188587e-10	1.904214e-09	7.648726e+00	2.306749e+02
2.670000e-06	1.098957e-10	1.819493e-09	7.073266e+00	2.206719e+02
2.680000e-06	1.009083e-10	1.736345e-09	6.496228e+00	2.102818e+02
2.690000e-06	9.190308e-11	1.650248e-09	5.918063e+00	1.994955e+02
2.700000e-06	8.288222e-11	1.557969e-09	5.338903e+00	1.883091e+02
2.710000e-06	7.384552e-11	1.461330e-09	4.758713e+00	1.767206e+02
2.720000e-06	6.479391e-11	1.362545e-09	4.177553e+00	1.647262e+02
2.730000e-06	5.572999e-11	1.262873e-09	3.595617e+00	1.523164e+02
2.740000e-06	4.665475e-11	1.158751e-09	3.012970e+00	1.394748e+02
2.750000e-06	3.756857e-11	1.050013e-09	2.429608e+00	1.261782e+02
2.760000e-06	2.847511e-11	9.373715e-10	1.845757e+00	1.123994e+02
2.770000e-06	1.937980e-11	8.219135e-10	1.261771e+00	9.811208e+01
2.780000e-06	1.028280e-11	7.016974e-10	6.776749e-01	8.329757e+01
2.790000e-06	1.181064e-12	5.729336e-10	9.328643e-02	6.795085e+01
2.800000e-06	-7.924620e-12	4.390495e-10	-4.913599e-01	5.208626e+01
2.810000e-06	-1.703012e-11	3.049539e-10	-1.076009e+00	3.574086e+01
2.820000e-06	-2.613233e-11	1.705541e-10	-1.660424e+00	1.897503e+01
2.830000e-06	-3.523033e-11	3.264380e-11	-2.244570e+00	1.870245e+00
2.840000e-06	-4.432152e-11	-1.100721e-10	-2.828315e+00	-1.547578e+01
2.850000e-06	-5.340333e-11	-2.542009e-10	-3.411457e+00	-3.295557e+01
2.860000e-06	-6.247591e-11	-3.970390e-10	-3.993967e+00	-5.045904e+01
2.870000e-06	-7.154005e-11	-5.398201e-10	-4.575922e+00	-6.788013e+01
2.880000e-06	-8.059212e-11	-6.846588e-10	-5.157142e+00	-8.512200e+01
2.890000e-06	-8.962171e-11	-8.290349e-10	-5.736964e+00	-1.021002e+02
2.900000e-06	-9.862252e-11	-9.683233e-10	-6.314923e+00	-1.187438e+02
2.910000e-06	-1.075966e-10	-1.101396e-09	-6.891112e+00	-1.349945e+02
