# Temperatura_=_20.0
# Concentracion g/m^3_=_10000.0
# C_Vs_to_Am_M_A/Vsm_=_116720831517.84952
# pendiente_HvsI_1/m_=_3716.3
# ordenada_HvsI_A/m_=_1297.0
# frecuencia_Hz_=_268333.6296448133
# Promedio de 28 ciclos

Tiempo_(s)	Campo_(V.s)	Magnetizacion_(V.s)	Campo_(kA/m)	Magnetizacion_(A/m)
0.000000e+00	-3.571908e-10	-3.629965e-09	-2.356128e+01	-4.151503e+02
1.000000e-08	-3.571371e-10	-3.629118e-09	-2.355774e+01	-4.151433e+02
2.000000e-08	-3.569943e-10	-3.630904e-09	-2.354832e+01	-4.150673e+02
3.000000e-08	-3.567360e-10	-3.634400e-09	-2.353128e+01	-4.149188e+02
4.000000e-08	-3.563675e-10	-3.635841e-09	-2.350697e+01	-4.146953e+02
5.000000e-08	-3.559133e-10	-3.634521e-09	-2.347701e+01	-4.143958e+02
6.000000e-08	-3.553747e-10	-3.628214e-09	-2.344149e+01	-4.140210e+02
7.000000e-08	-3.547440e-10	-3.612485e-09	-2.339989e+01	-4.135739e+02
8.000000e-08	-3.540064e-10	-3.599526e-09	-2.335123e+01	-4.130595e+02
9.000000e-08	-3.531257e-10	-3.636083e-09	-2.329313e+01	-4.124846e+02
1.000000e-07	-3.520787e-10	-3.695919e-09	-2.322407e+01	-4.118580e+02
1.100000e-07	-3.509257e-10	-3.640952e-09	-2.314802e+01	-4.111891e+02
1.200000e-07	-3.497583e-10	-3.511368e-09	-2.307102e+01	-4.104880e+02
1.300000e-07	-3.485389e-10	-3.559436e-09	-2.299058e+01	-4.097644e+02
1.400000e-07	-3.471631e-10	-3.689415e-09	-2.289983e+01	-4.090269e+02
1.500000e-07	-3.456508e-10	-3.607440e-09	-2.280007e+01	-4.082820e+02
1.600000e-07	-3.440664e-10	-3.490496e-09	-2.269556e+01	-4.075339e+02
1.700000e-07	-3.423574e-10	-3.601734e-09	-2.258284e+01	-4.067837e+02
1.800000e-07	-3.405057e-10	-3.606396e-09	-2.246069e+01	-4.060288e+02
1.900000e-07	-3.385996e-10	-3.381307e-09	-2.233496e+01	-4.052636e+02
2.000000e-07	-3.366457e-10	-3.380350e-09	-2.220607e+01	-4.044789e+02
2.100000e-07	-3.345941e-10	-3.505426e-09	-2.207074e+01	-4.036629e+02
2.200000e-07	-3.324503e-10	-3.375153e-09	-2.192933e+01	-4.028015e+02
2.300000e-07	-3.302103e-10	-3.301369e-09	-2.178158e+01	-4.018790e+02
2.400000e-07	-3.278610e-10	-3.443564e-09	-2.162661e+01	-4.008795e+02
2.500000e-07	-3.254461e-10	-3.393323e-09	-2.146732e+01	-3.997874e+02
2.600000e-07	-3.229652e-10	-3.297844e-09	-2.130367e+01	-3.985885e+02
2.700000e-07	-3.203478e-10	-3.379391e-09	-2.113102e+01	-3.972708e+02
2.800000e-07	-3.176067e-10	-3.330487e-09	-2.095021e+01	-3.958253e+02
2.900000e-07	-3.147957e-10	-3.225314e-09	-2.076479e+01	-3.942460e+02
3.000000e-07	-3.118964e-10	-3.307064e-09	-2.057355e+01	-3.925307e+02
3.100000e-07	-3.088944e-10	-3.327279e-09	-2.037552e+01	-3.906804e+02
3.200000e-07	-3.058111e-10	-3.240570e-09	-2.017214e+01	-3.886994e+02
3.300000e-07	-3.026587e-10	-3.244946e-09	-1.996420e+01	-3.865944e+02
3.400000e-07	-2.994463e-10	-3.234699e-09	-1.975230e+01	-3.843743e+02
3.500000e-07	-2.961608e-10	-3.194752e-09	-1.953558e+01	-3.820490e+02
3.600000e-07	-2.927602e-10	-3.194737e-09	-1.931127e+01	-3.796286e+02
3.700000e-07	-2.892403e-10	-3.146682e-09	-1.907909e+01	-3.771228e+02
3.800000e-07	-2.856385e-10	-3.120247e-09	-1.884151e+01	-3.745403e+02
3.900000e-07	-2.819715e-10	-3.169333e-09	-1.859962e+01	-3.718875e+02
4.000000e-07	-2.782317e-10	-3.133312e-09	-1.835293e+01	-3.691691e+02
4.100000e-07	-2.744133e-10	-3.058813e-09	-1.810106e+01	-3.663870e+02
4.200000e-07	-2.705191e-10	-3.055218e-09	-1.784419e+01	-3.635411e+02
4.300000e-07	-2.665582e-10	-3.033574e-09	-1.758292e+01	-3.606289e+02
4.400000e-07	-2.625355e-10	-2.996088e-09	-1.731757e+01	-3.576461e+02
4.500000e-07	-2.584471e-10	-2.985759e-09	-1.704789e+01	-3.545873e+02
4.600000e-07	-2.542874e-10	-2.950153e-09	-1.677350e+01	-3.514461e+02
4.700000e-07	-2.500483e-10	-2.913498e-09	-1.649388e+01	-3.482161e+02
4.800000e-07	-2.457190e-10	-2.915507e-09	-1.620831e+01	-3.448913e+02
4.900000e-07	-2.413042e-10	-2.883098e-09	-1.591710e+01	-3.414662e+02
5.000000e-07	-2.368243e-10	-2.817410e-09	-1.562159e+01	-3.379367e+02
5.100000e-07	-2.322937e-10	-2.791003e-09	-1.532274e+01	-3.342999e+02
5.200000e-07	-2.277092e-10	-2.784118e-09	-1.502033e+01	-3.305542e+02
5.300000e-07	-2.230578e-10	-2.753387e-09	-1.471351e+01	-3.266990e+02
5.400000e-07	-2.183335e-10	-2.709156e-09	-1.440189e+01	-3.227348e+02
5.500000e-07	-2.135493e-10	-2.665268e-09	-1.408631e+01	-3.186625e+02
5.600000e-07	-2.087204e-10	-2.631810e-09	-1.376778e+01	-3.144834e+02
5.700000e-07	-2.038379e-10	-2.610251e-09	-1.344572e+01	-3.101984e+02
5.800000e-07	-1.988779e-10	-2.570551e-09	-1.311854e+01	-3.058078e+02
5.900000e-07	-1.938272e-10	-2.519663e-09	-1.278538e+01	-3.013111e+02
6.000000e-07	-1.886930e-10	-2.486352e-09	-1.244672e+01	-2.967068e+02
6.100000e-07	-1.834912e-10	-2.461741e-09	-1.210359e+01	-2.919920e+02
6.200000e-07	-1.782292e-10	-2.424987e-09	-1.175650e+01	-2.871629e+02
6.300000e-07	-1.729061e-10	-2.369649e-09	-1.140537e+01	-2.822148e+02
6.400000e-07	-1.675309e-10	-2.310299e-09	-1.105081e+01	-2.771421e+02
6.500000e-07	-1.621167e-10	-2.271035e-09	-1.069368e+01	-2.719391e+02
6.600000e-07	-1.566635e-10	-2.241638e-09	-1.033396e+01	-2.665996e+02
6.700000e-07	-1.511604e-10	-2.192292e-09	-9.970967e+00	-2.611181e+02
6.800000e-07	-1.456056e-10	-2.133778e-09	-9.604562e+00	-2.554893e+02
6.900000e-07	-1.400116e-10	-2.088175e-09	-9.235566e+00	-2.497086e+02
7.000000e-07	-1.343924e-10	-2.047795e-09	-8.864907e+00	-2.437723e+02
7.100000e-07	-1.287546e-10	-1.993583e-09	-8.493021e+00	-2.376771e+02
7.200000e-07	-1.230924e-10	-1.926048e-09	-8.119528e+00	-2.314208e+02
7.300000e-07	-1.173977e-10	-1.862895e-09	-7.743891e+00	-2.250010e+02
7.400000e-07	-1.116683e-10	-1.815850e-09	-7.365964e+00	-2.184158e+02
7.500000e-07	-1.059009e-10	-1.771571e-09	-6.985530e+00	-2.116628e+02
7.600000e-07	-1.000852e-10	-1.710083e-09	-6.601912e+00	-2.047390e+02
7.700000e-07	-9.421835e-11	-1.639438e-09	-6.214918e+00	-1.976406e+02
7.800000e-07	-8.831202e-11	-1.577536e-09	-5.825321e+00	-1.903624e+02
7.900000e-07	-8.237338e-11	-1.522183e-09	-5.433592e+00	-1.828982e+02
8.000000e-07	-7.640495e-11	-1.456264e-09	-5.039898e+00	-1.752404e+02
8.100000e-07	-7.041204e-11	-1.378829e-09	-4.644590e+00	-1.673801e+02
8.200000e-07	-6.440093e-11	-1.306027e-09	-4.248080e+00	-1.593078e+02
8.300000e-07	-5.838030e-11	-1.244673e-09	-3.850943e+00	-1.510132e+02
8.400000e-07	-5.235562e-11	-1.181193e-09	-3.453538e+00	-1.424861e+02
8.500000e-07	-4.632568e-11	-1.103228e-09	-3.055787e+00	-1.337172e+02
8.600000e-07	-4.028896e-11	-1.017722e-09	-2.657589e+00	-1.246979e+02
8.700000e-07	-3.424730e-11	-9.376036e-10	-2.259064e+00	-1.154218e+02
8.800000e-07	-2.820318e-11	-8.624232e-10	-1.860377e+00	-1.058849e+02
8.900000e-07	-2.215613e-11	-7.788194e-10	-1.461497e+00	-9.608590e+01
9.000000e-07	-1.610645e-11	-6.850859e-10	-1.062444e+00	-8.602719e+01
9.100000e-07	-1.005598e-11	-5.943251e-10	-6.633379e-01	-7.571472e+01
9.200000e-07	-4.003915e-12	-5.125976e-10	-2.641274e-01	-6.515835e+01
9.300000e-07	2.049976e-12	-4.281995e-10	1.352039e-01	-5.437188e+01
9.400000e-07	8.105104e-12	-3.306983e-10	5.346167e-01	-4.337297e+01
9.500000e-07	1.416067e-11	-2.274306e-10	9.340582e-01	-3.218291e+01
9.600000e-07	2.021377e-11	-1.302281e-10	1.333338e+00	-2.082632e+01
9.700000e-07	2.626217e-11	-3.701230e-11	1.732306e+00	-9.330741e+00
9.800000e-07	3.230736e-11	6.258081e-11	2.131064e+00	2.273835e+00
9.900000e-07	3.835033e-11	1.682901e-10	2.529675e+00	1.395551e+01
1.000000e-06	4.438945e-11	2.701641e-10	2.928032e+00	2.568103e+01
1.010000e-06	5.042324e-11	3.636554e-10	3.326037e+00	3.741635e+01
1.020000e-06	5.645083e-11	4.573349e-10	3.723634e+00	4.912724e+01
1.030000e-06	6.247150e-11	5.600413e-10	4.120774e+00	6.077982e+01
1.040000e-06	6.848247e-11	6.659574e-10	4.517274e+00	7.234113e+01
1.050000e-06	7.447841e-11	7.633181e-10	4.912782e+00	8.377966e+01
1.060000e-06	8.045356e-11	8.537516e-10	5.306920e+00	9.506581e+01
1.070000e-06	8.640174e-11	9.468638e-10	5.699278e+00	1.061724e+02
1.080000e-06	9.231368e-11	1.042483e-09	6.089246e+00	1.170749e+02
1.090000e-06	9.817574e-11	1.134176e-09	6.475923e+00	1.277522e+02
1.100000e-06	1.039803e-10	1.219092e-09	6.858808e+00	1.381861e+02
1.110000e-06	1.097334e-10	1.302375e-09	7.238298e+00	1.483624e+02
1.120000e-06	1.154443e-10	1.390509e-09	7.615006e+00	1.582702e+02
1.130000e-06	1.211197e-10	1.480016e-09	7.989369e+00	1.679024e+02
1.140000e-06	1.267674e-10	1.561173e-09	8.361906e+00	1.772552e+02
1.150000e-06	1.323921e-10	1.633527e-09	8.732930e+00	1.863284e+02
1.160000e-06	1.379912e-10	1.706165e-09	9.102257e+00	1.951243e+02
1.170000e-06	1.435552e-10	1.780796e-09	9.469279e+00	2.036477e+02
1.180000e-06	1.490764e-10	1.851790e-09	9.833471e+00	2.119056e+02
1.190000e-06	1.545546e-10	1.917290e-09	1.019483e+01	2.199062e+02
1.200000e-06	1.599937e-10	1.981760e-09	1.055361e+01	2.276585e+02
1.210000e-06	1.653919e-10	2.047738e-09	1.090968e+01	2.351717e+02
1.220000e-06	1.707416e-10	2.111813e-09	1.126257e+01	2.424549e+02
1.230000e-06	1.760391e-10	2.169583e-09	1.161200e+01	2.495164e+02
1.240000e-06	1.812854e-10	2.221804e-09	1.195807e+01	2.563633e+02
1.250000e-06	1.864788e-10	2.274863e-09	1.230064e+01	2.630017e+02
1.260000e-06	1.916040e-10	2.329862e-09	1.263871e+01	2.694362e+02
1.270000e-06	1.966427e-10	2.382401e-09	1.297107e+01	2.756702e+02
1.280000e-06	2.015948e-10	2.430008e-09	1.329773e+01	2.817059e+02
1.290000e-06	2.064784e-10	2.475512e-09	1.361986e+01	2.875448e+02
1.300000e-06	2.113130e-10	2.521980e-09	1.393877e+01	2.931880e+02
1.310000e-06	2.161040e-10	2.567457e-09	1.425479e+01	2.986365e+02
1.320000e-06	2.208408e-10	2.608181e-09	1.456725e+01	3.038915e+02
1.330000e-06	2.255166e-10	2.645198e-09	1.487568e+01	3.089551e+02
1.340000e-06	2.301295e-10	2.683735e-09	1.517995e+01	3.138305e+02
1.350000e-06	2.346778e-10	2.724215e-09	1.547997e+01	3.185217e+02
1.360000e-06	2.391687e-10	2.762618e-09	1.577621e+01	3.230345e+02
1.370000e-06	2.436143e-10	2.797092e-09	1.606945e+01	3.273756e+02
1.380000e-06	2.480134e-10	2.829654e-09	1.635963e+01	3.315529e+02
1.390000e-06	2.523409e-10	2.862075e-09	1.664508e+01	3.355751e+02
1.400000e-06	2.565678e-10	2.893385e-09	1.692390e+01	3.394513e+02
1.410000e-06	2.606925e-10	2.921574e-09	1.719597e+01	3.431907e+02
1.420000e-06	2.647407e-10	2.948164e-09	1.746301e+01	3.468022e+02
1.430000e-06	2.687276e-10	2.976256e-09	1.772599e+01	3.502937e+02
1.440000e-06	2.726471e-10	3.004847e-09	1.798453e+01	3.536724e+02
1.450000e-06	2.764922e-10	3.031551e-09	1.823817e+01	3.569438e+02
1.460000e-06	2.802576e-10	3.055103e-09	1.848654e+01	3.601121e+02
1.470000e-06	2.839487e-10	3.076958e-09	1.873002e+01	3.631802e+02
1.480000e-06	2.875790e-10	3.099306e-09	1.896948e+01	3.661495e+02
1.490000e-06	2.911386e-10	3.122197e-09	1.920428e+01	3.690201e+02
1.500000e-06	2.945953e-10	3.144625e-09	1.943229e+01	3.717916e+02
1.510000e-06	2.979391e-10	3.166353e-09	1.965287e+01	3.744630e+02
1.520000e-06	3.011935e-10	3.187835e-09	1.986753e+01	3.770332e+02
1.530000e-06	3.043734e-10	3.208166e-09	2.007729e+01	3.795012e+02
1.540000e-06	3.074745e-10	3.225630e-09	2.028185e+01	3.818666e+02
1.550000e-06	3.104933e-10	3.240805e-09	2.048097e+01	3.841301e+02
1.560000e-06	3.134305e-10	3.256521e-09	2.067472e+01	3.862928e+02
1.570000e-06	3.162958e-10	3.274012e-09	2.086372e+01	3.883570e+02
1.580000e-06	3.190921e-10	3.292161e-09	2.104818e+01	3.903258e+02
1.590000e-06	3.217908e-10	3.307933e-09	2.122619e+01	3.922028e+02
1.600000e-06	3.243644e-10	3.321250e-09	2.139595e+01	3.939922e+02
1.610000e-06	3.268275e-10	3.333956e-09	2.155843e+01	3.956982e+02
1.620000e-06	3.292036e-10	3.346299e-09	2.171516e+01	3.973247e+02
1.630000e-06	3.314943e-10	3.357643e-09	2.186626e+01	3.988755e+02
1.640000e-06	3.336965e-10	3.367843e-09	2.201152e+01	4.003533e+02
1.650000e-06	3.358143e-10	3.379255e-09	2.215122e+01	4.017603e+02
1.660000e-06	3.378598e-10	3.393035e-09	2.228615e+01	4.030978e+02
1.670000e-06	3.398287e-10	3.406199e-09	2.241602e+01	4.043662e+02
1.680000e-06	3.417003e-10	3.415749e-09	2.253947e+01	4.055654e+02
1.690000e-06	3.434706e-10	3.422151e-09	2.265625e+01	4.066948e+02
1.700000e-06	3.451443e-10	3.428266e-09	2.276666e+01	4.077536e+02
1.710000e-06	3.467139e-10	3.436187e-09	2.287019e+01	4.087413e+02
1.720000e-06	3.481758e-10	3.444570e-09	2.296662e+01	4.096574e+02
1.730000e-06	3.495367e-10	3.452443e-09	2.305639e+01	4.105023e+02
1.740000e-06	3.507998e-10	3.460405e-09	2.313971e+01	4.112769e+02
1.750000e-06	3.519553e-10	3.468564e-09	2.321592e+01	4.119829e+02
1.760000e-06	3.529840e-10	3.475403e-09	2.328378e+01	4.126227e+02
1.770000e-06	3.538912e-10	3.478928e-09	2.334362e+01	4.131991e+02
1.780000e-06	3.546999e-10	3.479807e-09	2.339697e+01	4.137151e+02
1.790000e-06	3.554151e-10	3.480930e-09	2.344415e+01	4.141739e+02
1.800000e-06	3.560323e-10	3.484742e-09	2.348486e+01	4.145779e+02
1.810000e-06	3.565568e-10	3.490333e-09	2.351945e+01	4.149292e+02
1.820000e-06	3.569981e-10	3.494433e-09	2.354857e+01	4.152286e+02
1.830000e-06	3.573451e-10	3.495799e-09	2.357145e+01	4.154759e+02
1.840000e-06	3.575714e-10	3.496564e-09	2.358638e+01	4.156697e+02
1.850000e-06	3.576783e-10	3.497315e-09	2.359344e+01	4.158076e+02
1.860000e-06	3.576877e-10	3.497323e-09	2.359405e+01	4.158859e+02
1.870000e-06	3.576086e-10	3.497285e-09	2.358884e+01	4.159009e+02
1.880000e-06	3.574406e-10	3.496373e-09	2.357776e+01	4.158481e+02
1.890000e-06	3.571866e-10	3.494688e-09	2.356100e+01	4.157240e+02
1.900000e-06	3.568571e-10	3.493695e-09	2.353927e+01	4.155255e+02
1.910000e-06	3.564530e-10	3.489943e-09	2.351261e+01	4.152511e+02
1.920000e-06	3.559439e-10	3.484579e-09	2.347903e+01	4.149011e+02
1.930000e-06	3.553115e-10	3.489814e-09	2.343732e+01	4.144775e+02
1.940000e-06	3.545825e-10	3.493927e-09	2.338923e+01	4.139847e+02
1.950000e-06	3.537588e-10	3.433793e-09	2.333490e+01	4.134290e+02
1.960000e-06	3.527737e-10	3.367024e-09	2.326992e+01	4.128185e+02
1.970000e-06	3.515999e-10	3.459794e-09	2.319249e+01	4.121626e+02
1.980000e-06	3.503562e-10	3.561006e-09	2.311045e+01	4.114712e+02
1.990000e-06	3.491397e-10	3.455511e-09	2.303021e+01	4.107542e+02
2.000000e-06	3.478433e-10	3.352240e-09	2.294469e+01	4.100206e+02
2.010000e-06	3.463592e-10	3.448089e-09	2.284680e+01	4.092777e+02
2.020000e-06	3.447801e-10	3.482962e-09	2.274264e+01	4.085306e+02
2.030000e-06	3.431651e-10	3.329291e-09	2.263611e+01	4.077814e+02
2.040000e-06	3.414117e-10	3.398444e-09	2.252045e+01	4.070287e+02
2.050000e-06	3.395231e-10	3.619297e-09	2.239587e+01	4.062679e+02
2.060000e-06	3.375918e-10	3.505281e-09	2.226848e+01	4.054910e+02
2.070000e-06	3.355740e-10	3.375893e-09	2.213538e+01	4.046870e+02
2.080000e-06	3.334344e-10	3.570528e-09	2.199425e+01	4.038423e+02
2.090000e-06	3.312428e-10	3.580700e-09	2.184968e+01	4.029418e+02
2.100000e-06	3.289569e-10	3.376029e-09	2.169890e+01	4.019695e+02
2.110000e-06	3.265063e-10	3.464352e-09	2.153725e+01	4.009097e+02
2.120000e-06	3.239761e-10	3.539738e-09	2.137036e+01	3.997475e+02
2.130000e-06	3.213991e-10	3.402842e-09	2.120037e+01	3.984702e+02
2.140000e-06	3.187168e-10	3.464196e-09	2.102343e+01	3.970677e+02
2.150000e-06	3.159450e-10	3.520461e-09	2.084060e+01	3.955331e+02
2.160000e-06	3.130891e-10	3.367688e-09	2.065222e+01	3.938627e+02
2.170000e-06	3.101140e-10	3.379334e-09	2.045597e+01	3.920567e+02
2.180000e-06	3.070406e-10	3.433421e-09	2.025325e+01	3.901182e+02
2.190000e-06	3.038736e-10	3.341679e-09	2.004434e+01	3.880533e+02
2.200000e-06	3.006004e-10	3.352899e-09	1.982843e+01	3.858702e+02
2.210000e-06	2.972628e-10	3.354066e-09	1.960828e+01	3.835786e+02
2.220000e-06	2.938605e-10	3.285250e-09	1.938385e+01	3.811885e+02
2.230000e-06	2.903724e-10	3.320043e-09	1.915377e+01	3.787101e+02
2.240000e-06	2.868189e-10	3.274233e-09	1.891937e+01	3.761521e+02
2.250000e-06	2.831794e-10	3.174991e-09	1.867930e+01	3.735221e+02
2.260000e-06	2.794312e-10	3.227206e-09	1.843205e+01	3.708251e+02
2.270000e-06	2.756013e-10	3.223656e-09	1.817942e+01	3.680641e+02
2.280000e-06	2.716874e-10	3.148503e-09	1.792125e+01	3.652396e+02
2.290000e-06	2.676900e-10	3.152450e-09	1.765757e+01	3.623498e+02
2.300000e-06	2.636404e-10	3.119055e-09	1.739045e+01	3.593910e+02
2.310000e-06	2.595338e-10	3.073341e-09	1.711957e+01	3.563580e+02
2.320000e-06	2.553571e-10	3.073472e-09	1.684407e+01	3.532449e+02
2.330000e-06	2.511124e-10	3.029166e-09	1.656407e+01	3.500450e+02
2.340000e-06	2.468055e-10	2.980567e-09	1.627998e+01	3.467522e+02
2.350000e-06	2.424477e-10	2.975580e-09	1.599253e+01	3.433608e+02
2.360000e-06	2.380292e-10	2.964390e-09	1.570107e+01	3.398662e+02
2.370000e-06	2.335305e-10	2.921734e-09	1.540432e+01	3.362652e+02
2.380000e-06	2.289605e-10	2.871243e-09	1.510287e+01	3.325556e+02
2.390000e-06	2.243395e-10	2.841710e-09	1.479806e+01	3.287366e+02
2.400000e-06	2.196677e-10	2.817354e-09	1.448989e+01	3.248084e+02
2.410000e-06	2.149238e-10	2.786057e-09	1.417697e+01	3.207718e+02
2.420000e-06	2.100958e-10	2.747177e-09	1.385851e+01	3.166279e+02
2.430000e-06	2.052005e-10	2.696746e-09	1.353560e+01	3.123779e+02
2.440000e-06	2.002581e-10	2.668860e-09	1.320959e+01	3.080223e+02
2.450000e-06	1.952691e-10	2.642791e-09	1.288050e+01	3.035609e+02
2.460000e-06	1.902203e-10	2.589554e-09	1.254746e+01	2.989924e+02
2.470000e-06	1.851071e-10	2.544444e-09	1.221019e+01	2.943145e+02
2.480000e-06	1.799360e-10	2.504161e-09	1.186908e+01	2.895238e+02
2.490000e-06	1.746978e-10	2.470410e-09	1.152356e+01	2.846156e+02
2.500000e-06	1.693770e-10	2.438713e-09	1.117258e+01	2.795848e+02
2.510000e-06	1.639722e-10	2.377393e-09	1.081607e+01	2.744256e+02
2.520000e-06	1.585006e-10	2.319681e-09	1.045515e+01	2.691320e+02
2.530000e-06	1.529888e-10	2.284623e-09	1.009158e+01	2.636981e+02
2.540000e-06	1.474477e-10	2.241293e-09	9.726067e+00	2.581186e+02
2.550000e-06	1.418717e-10	2.188137e-09	9.358260e+00	2.523886e+02
2.560000e-06	1.362590e-10	2.131335e-09	8.988034e+00	2.465041e+02
2.570000e-06	1.306136e-10	2.082114e-09	8.615645e+00	2.404618e+02
2.580000e-06	1.249379e-10	2.042878e-09	8.241261e+00	2.342590e+02
2.590000e-06	1.192286e-10	1.992184e-09	7.864659e+00	2.278935e+02
2.600000e-06	1.134822e-10	1.926772e-09	7.485615e+00	2.213633e+02
2.610000e-06	1.077037e-10	1.861964e-09	7.104447e+00	2.146661e+02
2.620000e-06	1.018978e-10	1.809660e-09	6.721472e+00	2.077992e+02
2.630000e-06	9.606066e-11	1.756181e-09	6.336441e+00	2.007591e+02
2.640000e-06	9.018915e-11	1.687343e-09	5.949140e+00	1.935410e+02
2.650000e-06	8.429391e-11	1.614456e-09	5.560274e+00	1.861391e+02
2.660000e-06	7.838655e-11	1.549830e-09	5.170608e+00	1.785462e+02
2.670000e-06	7.246784e-11	1.491876e-09	4.780194e+00	1.707539e+02
2.680000e-06	6.653584e-11	1.426082e-09	4.388903e+00	1.627528e+02
2.690000e-06	6.059357e-11	1.348924e-09	3.996935e+00	1.545328e+02
2.700000e-06	5.464744e-11	1.276043e-09	3.604711e+00	1.460837e+02
2.710000e-06	4.869837e-11	1.208334e-09	3.212295e+00	1.373957e+02
2.720000e-06	4.274090e-11	1.133186e-09	2.819324e+00	1.284600e+02
2.730000e-06	3.676923e-11	1.047857e-09	2.425416e+00	1.192694e+02
2.740000e-06	3.078507e-11	9.588894e-10	2.030685e+00	1.098190e+02
2.750000e-06	2.479604e-11	8.773256e-10	1.635632e+00	1.001065e+02
2.760000e-06	1.880478e-11	7.997892e-10	1.240433e+00	9.013325e+01
2.770000e-06	1.280827e-11	7.137094e-10	8.448864e-01	7.990382e+01
2.780000e-06	6.803634e-12	6.199468e-10	4.488045e-01	6.942682e+01
2.790000e-06	7.938195e-13	5.280967e-10	5.238083e-02	5.871475e+01
2.800000e-06	-5.216434e-12	4.408677e-10	-3.440718e-01	4.778400e+01
2.810000e-06	-1.122383e-11	3.482967e-10	-7.403358e-01	3.665470e+01
2.820000e-06	-1.722793e-11	2.448829e-10	-1.136382e+00	2.535041e+01
2.830000e-06	-2.322856e-11	1.393723e-10	-1.532200e+00	1.389776e+01
2.840000e-06	-2.922300e-11	4.093076e-11	-1.927610e+00	2.325960e+00
2.850000e-06	-3.520963e-11	-5.327937e-11	-2.322504e+00	-9.333646e+00
2.860000e-06	-4.118798e-11	-1.515640e-10	-2.716852e+00	-2.104820e+01
2.870000e-06	-4.715837e-11	-2.552402e-10	-3.110676e+00	-3.278385e+01
2.880000e-06	-5.312005e-11	-3.572604e-10	-3.503924e+00	-4.450637e+01
2.890000e-06	-5.907304e-11	-4.542568e-10	-3.896600e+00	-5.618170e+01
2.900000e-06	-6.501736e-11	-5.530415e-10	-4.288703e+00	-6.777653e+01
2.910000e-06	-7.095289e-11	-6.580892e-10	-4.680227e+00	-7.925881e+01
2.920000e-06	-7.687996e-11	-7.619320e-10	-5.071193e+00	-9.059826e+01
2.930000e-06	-8.279463e-11	-8.570740e-10	-5.461341e+00	-1.017668e+02
2.940000e-06	-8.868893e-11	-9.472717e-10	-5.850146e+00	-1.127392e+02
2.950000e-06	-9.455710e-11	-1.038361e-09	-6.237226e+00	-1.234928e+02
