# Temperatura_=_20.0
# Concentracion g/m^3_=_10000.0
# C_Vs_to_Am_M_A/Vsm_=_116720831517.84952
# pendiente_HvsI_1/m_=_3716.3
# ordenada_HvsI_A/m_=_1297.0
# frecuencia_Hz_=_268390.62154006003
# Promedio de 26 ciclos

Tiempo_(s)	Campo_(V.s)	Magnetizacion_(V.s)	Campo_(kA/m)	Magnetizacion_(A/m)
0.000000e+00	-2.684011e-10	-1.383016e-09	-1.797823e+01	-1.592494e+02
1.000000e-08	-2.683626e-10	-1.382608e-09	-1.797565e+01	-1.594508e+02
2.000000e-08	-2.682690e-10	-1.383122e-09	-1.796938e+01	-1.596248e+02
3.000000e-08	-2.681003e-10	-1.384375e-09	-1.795808e+01	-1.597733e+02
4.000000e-08	-2.678448e-10	-1.386335e-09	-1.794096e+01	-1.598975e+02
5.000000e-08	-2.675015e-10	-1.387927e-09	-1.791797e+01	-1.599989e+02
6.000000e-08	-2.670802e-10	-1.385055e-09	-1.788975e+01	-1.600783e+02
7.000000e-08	-2.665843e-10	-1.366635e-09	-1.785653e+01	-1.601364e+02
8.000000e-08	-2.659882e-10	-1.377364e-09	-1.781660e+01	-1.601733e+02
9.000000e-08	-2.652802e-10	-1.464771e-09	-1.776918e+01	-1.601890e+02
1.000000e-07	-2.645145e-10	-1.433695e-09	-1.771789e+01	-1.601830e+02
1.100000e-07	-2.637406e-10	-1.293186e-09	-1.766605e+01	-1.601546e+02
1.200000e-07	-2.629212e-10	-1.307377e-09	-1.761117e+01	-1.601025e+02
1.300000e-07	-2.619892e-10	-1.480313e-09	-1.754874e+01	-1.600254e+02
1.400000e-07	-2.609647e-10	-1.451101e-09	-1.748012e+01	-1.599216e+02
1.500000e-07	-2.598924e-10	-1.284421e-09	-1.740829e+01	-1.597891e+02
1.600000e-07	-2.587207e-10	-1.348671e-09	-1.732981e+01	-1.596259e+02
1.700000e-07	-2.574250e-10	-1.503712e-09	-1.724302e+01	-1.594297e+02
1.800000e-07	-2.560669e-10	-1.366026e-09	-1.715205e+01	-1.591982e+02
1.900000e-07	-2.546625e-10	-1.225962e-09	-1.705798e+01	-1.589292e+02
2.000000e-07	-2.531493e-10	-1.408495e-09	-1.695662e+01	-1.586204e+02
2.100000e-07	-2.515193e-10	-1.451494e-09	-1.684744e+01	-1.582697e+02
2.200000e-07	-2.498160e-10	-1.276648e-09	-1.673335e+01	-1.578752e+02
2.300000e-07	-2.480407e-10	-1.298297e-09	-1.661443e+01	-1.574351e+02
2.400000e-07	-2.462034e-10	-1.433747e-09	-1.649137e+01	-1.569479e+02
2.500000e-07	-2.443189e-10	-1.330566e-09	-1.636514e+01	-1.564124e+02
2.600000e-07	-2.423633e-10	-1.274135e-09	-1.623415e+01	-1.558277e+02
2.700000e-07	-2.403293e-10	-1.376258e-09	-1.609791e+01	-1.551934e+02
2.800000e-07	-2.382484e-10	-1.323927e-09	-1.595852e+01	-1.545092e+02
2.900000e-07	-2.361127e-10	-1.227828e-09	-1.581546e+01	-1.537754e+02
3.000000e-07	-2.338894e-10	-1.338431e-09	-1.566654e+01	-1.529923e+02
3.100000e-07	-2.315979e-10	-1.360783e-09	-1.551305e+01	-1.521609e+02
3.200000e-07	-2.292657e-10	-1.234593e-09	-1.535684e+01	-1.512824e+02
3.300000e-07	-2.268832e-10	-1.249555e-09	-1.519725e+01	-1.503580e+02
3.400000e-07	-2.244433e-10	-1.319751e-09	-1.503382e+01	-1.493894e+02
3.500000e-07	-2.219427e-10	-1.274200e-09	-1.486632e+01	-1.483784e+02
3.600000e-07	-2.193543e-10	-1.221284e-09	-1.469294e+01	-1.473269e+02
3.700000e-07	-2.166710e-10	-1.245973e-09	-1.451321e+01	-1.462368e+02
3.800000e-07	-2.139141e-10	-1.240243e-09	-1.432855e+01	-1.451102e+02
3.900000e-07	-2.110992e-10	-1.248264e-09	-1.414000e+01	-1.439489e+02
4.000000e-07	-2.082401e-10	-1.227575e-09	-1.394849e+01	-1.427547e+02
4.100000e-07	-2.053403e-10	-1.183596e-09	-1.375425e+01	-1.415294e+02
4.200000e-07	-2.023872e-10	-1.184256e-09	-1.355644e+01	-1.402744e+02
4.300000e-07	-1.993718e-10	-1.195657e-09	-1.335446e+01	-1.389910e+02
4.400000e-07	-1.962976e-10	-1.175917e-09	-1.314854e+01	-1.376802e+02
4.500000e-07	-1.931697e-10	-1.156995e-09	-1.293903e+01	-1.363427e+02
4.600000e-07	-1.899960e-10	-1.146581e-09	-1.272645e+01	-1.349791e+02
4.700000e-07	-1.867854e-10	-1.126801e-09	-1.251139e+01	-1.335894e+02
4.800000e-07	-1.835398e-10	-1.144653e-09	-1.229399e+01	-1.321736e+02
4.900000e-07	-1.802562e-10	-1.121856e-09	-1.207405e+01	-1.307313e+02
5.000000e-07	-1.769256e-10	-1.070054e-09	-1.185096e+01	-1.292619e+02
5.100000e-07	-1.735236e-10	-1.069282e-09	-1.162308e+01	-1.277645e+02
5.200000e-07	-1.700305e-10	-1.091337e-09	-1.138910e+01	-1.262382e+02
5.300000e-07	-1.664601e-10	-1.065447e-09	-1.114995e+01	-1.246817e+02
5.400000e-07	-1.628436e-10	-1.032059e-09	-1.090770e+01	-1.230940e+02
5.500000e-07	-1.592000e-10	-1.024003e-09	-1.066364e+01	-1.214738e+02
5.600000e-07	-1.555280e-10	-1.011355e-09	-1.041768e+01	-1.198197e+02
5.700000e-07	-1.518169e-10	-1.007246e-09	-1.016911e+01	-1.181307e+02
5.800000e-07	-1.480616e-10	-9.883441e-10	-9.917567e+00	-1.164056e+02
5.900000e-07	-1.442638e-10	-9.559772e-10	-9.663182e+00	-1.146434e+02
6.000000e-07	-1.404265e-10	-9.390925e-10	-9.406146e+00	-1.128435e+02
6.100000e-07	-1.365462e-10	-9.450836e-10	-9.146237e+00	-1.110053e+02
6.200000e-07	-1.326201e-10	-9.317579e-10	-8.883253e+00	-1.091283e+02
6.300000e-07	-1.286548e-10	-8.953985e-10	-8.617650e+00	-1.072126e+02
6.400000e-07	-1.246620e-10	-8.691712e-10	-8.350197e+00	-1.052583e+02
6.500000e-07	-1.206459e-10	-8.622473e-10	-8.081192e+00	-1.032657e+02
6.600000e-07	-1.166073e-10	-8.597466e-10	-7.810677e+00	-1.012355e+02
6.700000e-07	-1.125475e-10	-8.339710e-10	-7.538736e+00	-9.916859e+01
6.800000e-07	-1.084644e-10	-8.029592e-10	-7.265240e+00	-9.706599e+01
6.900000e-07	-1.043485e-10	-7.852841e-10	-6.989550e+00	-9.492889e+01
7.000000e-07	-1.001865e-10	-7.776216e-10	-6.710766e+00	-9.275863e+01
7.100000e-07	-9.597451e-11	-7.578114e-10	-6.428634e+00	-9.055662e+01
7.200000e-07	-9.172026e-11	-7.267956e-10	-6.143674e+00	-8.832431e+01
7.300000e-07	-8.742863e-11	-7.023600e-10	-5.856209e+00	-8.606316e+01
7.400000e-07	-8.309591e-11	-6.922395e-10	-5.565992e+00	-8.377456e+01
7.500000e-07	-7.872352e-11	-6.852530e-10	-5.273118e+00	-8.145983e+01
7.600000e-07	-7.432574e-11	-6.578550e-10	-4.978543e+00	-7.912016e+01
7.700000e-07	-6.991541e-11	-6.232672e-10	-4.683128e+00	-7.675655e+01
7.800000e-07	-6.549422e-11	-6.020948e-10	-4.386984e+00	-7.436985e+01
7.900000e-07	-6.105921e-11	-5.923824e-10	-4.089915e+00	-7.196065e+01
8.000000e-07	-5.661191e-11	-5.714864e-10	-3.792023e+00	-6.952933e+01
8.100000e-07	-5.215911e-11	-5.403143e-10	-3.493762e+00	-6.707604e+01
8.200000e-07	-4.770258e-11	-5.145371e-10	-3.195252e+00	-6.460066e+01
8.300000e-07	-4.323681e-11	-5.000989e-10	-2.896123e+00	-6.210286e+01
8.400000e-07	-3.875797e-11	-4.866885e-10	-2.596118e+00	-5.958208e+01
8.500000e-07	-3.427170e-11	-4.584551e-10	-2.295615e+00	-5.703757e+01
8.600000e-07	-2.978284e-11	-4.254440e-10	-1.994940e+00	-5.446841e+01
8.700000e-07	-2.528519e-11	-4.019459e-10	-1.693675e+00	-5.187354e+01
8.800000e-07	-2.077512e-11	-3.880793e-10	-1.391578e+00	-4.925183e+01
8.900000e-07	-1.625687e-11	-3.665849e-10	-1.088934e+00	-4.660207e+01
9.000000e-07	-1.173853e-11	-3.350629e-10	-7.862834e-01	-4.392308e+01
9.100000e-07	-7.223431e-12	-3.061437e-10	-4.838497e-01	-4.121371e+01
9.200000e-07	-2.702441e-12	-2.883643e-10	-1.810217e-01	-3.847288e+01
9.300000e-07	1.828820e-12	-2.735349e-10	1.224944e-01	-3.569969e+01
9.400000e-07	6.359352e-12	-2.468914e-10	4.259617e-01	-3.289338e+01
9.500000e-07	1.088040e-11	-2.152912e-10	7.287935e-01	-3.005342e+01
9.600000e-07	1.539667e-11	-1.904515e-10	1.031306e+00	-2.717953e+01
9.700000e-07	1.991303e-11	-1.726729e-10	1.333823e+00	-2.427172e+01
9.800000e-07	2.442781e-11	-1.481702e-10	1.636235e+00	-2.133029e+01
9.900000e-07	2.893515e-11	-1.141798e-10	1.938149e+00	-1.835584e+01
1.000000e-06	3.343035e-11	-8.193402e-11	2.239250e+00	-1.534934e+01
1.010000e-06	3.791734e-11	-6.012802e-11	2.539801e+00	-1.231203e+01
1.020000e-06	4.239994e-11	-4.084434e-11	2.840057e+00	-9.245519e+00
1.030000e-06	4.687417e-11	-1.322186e-11	3.139753e+00	-6.151689e+00
1.040000e-06	5.133629e-11	1.745852e-11	3.438638e+00	-3.032726e+00
1.050000e-06	5.578944e-11	4.317236e-11	3.736922e+00	1.089183e-01
1.060000e-06	6.023664e-11	6.320287e-11	4.034808e+00	3.270558e+00
1.070000e-06	6.467672e-11	8.801569e-11	4.332216e+00	6.449301e+00
1.080000e-06	6.910730e-11	1.200705e-10	4.628988e+00	9.642082e+00
1.090000e-06	7.352595e-11	1.513061e-10	4.924962e+00	1.284570e+01
1.100000e-06	7.792883e-11	1.747802e-10	5.219878e+00	1.605686e+01
1.110000e-06	8.230943e-11	1.962885e-10	5.513303e+00	1.927221e+01
1.120000e-06	8.665884e-11	2.256519e-10	5.804638e+00	2.248836e+01
1.130000e-06	9.096375e-11	2.599423e-10	6.092992e+00	2.570194e+01
1.140000e-06	9.521454e-11	2.883557e-10	6.377721e+00	2.890961e+01
1.150000e-06	9.941252e-11	3.099433e-10	6.658913e+00	3.210810e+01
1.160000e-06	1.035622e-10	3.346455e-10	6.936867e+00	3.529425e+01
1.170000e-06	1.076699e-10	3.643709e-10	7.212016e+00	3.846500e+01
1.180000e-06	1.117467e-10	3.940366e-10	7.485092e+00	4.161741e+01
1.190000e-06	1.158024e-10	4.176111e-10	7.756749e+00	4.474871e+01
1.200000e-06	1.198406e-10	4.408884e-10	8.027243e+00	4.785627e+01
1.210000e-06	1.238576e-10	4.695947e-10	8.296314e+00	5.093762e+01
1.220000e-06	1.278475e-10	5.003329e-10	8.563563e+00	5.399046e+01
1.230000e-06	1.318016e-10	5.263471e-10	8.828423e+00	5.701263e+01
1.240000e-06	1.357158e-10	5.461890e-10	9.090605e+00	6.000215e+01
1.250000e-06	1.395917e-10	5.680300e-10	9.350221e+00	6.295720e+01
1.260000e-06	1.434291e-10	5.943332e-10	9.607265e+00	6.587609e+01
1.270000e-06	1.472274e-10	6.196346e-10	9.861680e+00	6.875729e+01
1.280000e-06	1.509855e-10	6.389236e-10	1.011341e+01	7.159939e+01
1.290000e-06	1.547048e-10	6.565858e-10	1.036254e+01	7.440114e+01
1.300000e-06	1.583887e-10	6.790996e-10	1.060930e+01	7.716137e+01
1.310000e-06	1.620436e-10	7.052568e-10	1.085411e+01	7.987907e+01
1.320000e-06	1.656718e-10	7.272360e-10	1.109714e+01	8.255332e+01
1.330000e-06	1.692639e-10	7.447157e-10	1.133775e+01	8.518333e+01
1.340000e-06	1.728004e-10	7.648682e-10	1.157463e+01	8.776840e+01
1.350000e-06	1.762633e-10	7.879724e-10	1.180659e+01	9.030795e+01
1.360000e-06	1.796447e-10	8.087965e-10	1.203308e+01	9.280150e+01
1.370000e-06	1.829558e-10	8.250280e-10	1.225487e+01	9.524868e+01
1.380000e-06	1.862199e-10	8.410799e-10	1.247351e+01	9.764920e+01
1.390000e-06	1.894492e-10	8.616975e-10	1.268981e+01	1.000029e+02
1.400000e-06	1.926372e-10	8.851734e-10	1.290335e+01	1.023097e+02
1.410000e-06	1.957725e-10	9.057486e-10	1.311337e+01	1.045697e+02
1.420000e-06	1.988520e-10	9.222650e-10	1.331964e+01	1.067829e+02
1.430000e-06	2.018766e-10	9.390625e-10	1.352224e+01	1.089495e+02
1.440000e-06	2.048438e-10	9.581387e-10	1.372098e+01	1.110699e+02
1.450000e-06	2.077567e-10	9.771193e-10	1.391610e+01	1.131444e+02
1.460000e-06	2.106262e-10	9.926124e-10	1.410831e+01	1.151734e+02
1.470000e-06	2.134560e-10	1.006528e-09	1.429785e+01	1.171572e+02
1.480000e-06	2.162318e-10	1.023045e-09	1.448378e+01	1.190965e+02
1.490000e-06	2.189251e-10	1.042084e-09	1.466419e+01	1.209916e+02
1.500000e-06	2.215218e-10	1.059318e-09	1.483812e+01	1.228431e+02
1.510000e-06	2.240351e-10	1.072560e-09	1.500647e+01	1.246513e+02
1.520000e-06	2.264857e-10	1.086008e-09	1.517061e+01	1.264166e+02
1.530000e-06	2.288794e-10	1.102118e-09	1.533095e+01	1.281395e+02
1.540000e-06	2.312102e-10	1.117857e-09	1.548708e+01	1.298200e+02
1.550000e-06	2.334786e-10	1.129569e-09	1.563902e+01	1.314584e+02
1.560000e-06	2.356859e-10	1.139434e-09	1.578688e+01	1.330546e+02
1.570000e-06	2.378300e-10	1.152483e-09	1.593049e+01	1.346087e+02
1.580000e-06	2.399179e-10	1.168336e-09	1.607035e+01	1.361203e+02
1.590000e-06	2.419590e-10	1.182026e-09	1.620706e+01	1.375892e+02
1.600000e-06	2.439473e-10	1.192747e-09	1.634024e+01	1.390149e+02
1.610000e-06	2.458664e-10	1.203173e-09	1.646879e+01	1.403969e+02
1.620000e-06	2.477080e-10	1.214847e-09	1.659214e+01	1.417345e+02
1.630000e-06	2.494795e-10	1.227008e-09	1.671081e+01	1.430269e+02
1.640000e-06	2.511873e-10	1.237214e-09	1.682520e+01	1.442734e+02
1.650000e-06	2.528203e-10	1.246112e-09	1.693458e+01	1.454731e+02
1.660000e-06	2.543679e-10	1.256544e-09	1.703824e+01	1.466253e+02
1.670000e-06	2.558353e-10	1.268161e-09	1.713653e+01	1.477290e+02
1.680000e-06	2.572300e-10	1.277812e-09	1.722996e+01	1.487835e+02
1.690000e-06	2.585535e-10	1.284939e-09	1.731861e+01	1.497881e+02
1.700000e-06	2.598075e-10	1.291636e-09	1.740260e+01	1.507424e+02
1.710000e-06	2.609828e-10	1.299941e-09	1.748133e+01	1.516459e+02
1.720000e-06	2.620573e-10	1.309463e-09	1.755330e+01	1.524984e+02
1.730000e-06	2.630259e-10	1.317480e-09	1.761818e+01	1.532998e+02
1.740000e-06	2.639114e-10	1.323872e-09	1.767749e+01	1.540505e+02
1.750000e-06	2.647340e-10	1.330659e-09	1.773260e+01	1.547509e+02
1.760000e-06	2.654909e-10	1.338035e-09	1.778329e+01	1.554016e+02
1.770000e-06	2.661751e-10	1.344591e-09	1.782912e+01	1.560037e+02
1.780000e-06	2.667849e-10	1.348637e-09	1.786997e+01	1.565583e+02
1.790000e-06	2.673230e-10	1.351733e-09	1.790601e+01	1.570668e+02
1.800000e-06	2.678012e-10	1.356222e-09	1.793805e+01	1.575310e+02
1.810000e-06	2.682234e-10	1.361490e-09	1.796633e+01	1.579526e+02
1.820000e-06	2.685684e-10	1.366902e-09	1.798943e+01	1.583336e+02
1.830000e-06	2.688103e-10	1.372182e-09	1.800563e+01	1.586761e+02
1.840000e-06	2.689531e-10	1.376799e-09	1.801520e+01	1.589823e+02
1.850000e-06	2.690218e-10	1.381203e-09	1.801980e+01	1.592544e+02
1.860000e-06	2.690272e-10	1.384714e-09	1.802017e+01	1.594945e+02
1.870000e-06	2.689663e-10	1.384930e-09	1.801608e+01	1.597047e+02
1.880000e-06	2.688374e-10	1.384638e-09	1.800745e+01	1.598871e+02
1.890000e-06	2.686409e-10	1.385793e-09	1.799429e+01	1.600433e+02
1.900000e-06	2.683782e-10	1.388340e-09	1.797670e+01	1.601750e+02
1.910000e-06	2.680592e-10	1.391240e-09	1.795533e+01	1.602834e+02
1.920000e-06	2.676901e-10	1.396999e-09	1.793061e+01	1.603696e+02
1.930000e-06	2.672581e-10	1.419576e-09	1.790167e+01	1.604344e+02
1.940000e-06	2.667267e-10	1.389668e-09	1.786607e+01	1.604780e+02
1.950000e-06	2.660523e-10	1.290401e-09	1.782090e+01	1.605004e+02
1.960000e-06	2.652600e-10	1.392542e-09	1.776783e+01	1.605013e+02
1.970000e-06	2.644407e-10	1.484765e-09	1.771295e+01	1.604800e+02
1.980000e-06	2.636115e-10	1.392256e-09	1.765741e+01	1.604355e+02
1.990000e-06	2.626920e-10	1.280717e-09	1.759582e+01	1.603664e+02
2.000000e-06	2.616575e-10	1.363897e-09	1.752653e+01	1.602710e+02
2.010000e-06	2.605823e-10	1.435518e-09	1.745451e+01	1.601476e+02
2.020000e-06	2.594700e-10	1.259975e-09	1.738000e+01	1.599941e+02
2.030000e-06	2.582270e-10	1.215434e-09	1.729674e+01	1.598082e+02
2.040000e-06	2.568610e-10	1.418005e-09	1.720524e+01	1.595877e+02
2.050000e-06	2.554377e-10	1.439006e-09	1.710990e+01	1.593304e+02
2.060000e-06	2.539390e-10	1.205274e-09	1.700952e+01	1.590340e+02
2.070000e-06	2.523457e-10	1.283461e-09	1.690279e+01	1.586962e+02
2.080000e-06	2.507001e-10	1.474365e-09	1.679257e+01	1.583152e+02
2.090000e-06	2.490039e-10	1.320423e-09	1.667896e+01	1.578890e+02
2.100000e-06	2.472124e-10	1.202611e-09	1.655895e+01	1.574162e+02
2.110000e-06	2.453535e-10	1.366487e-09	1.643444e+01	1.568954e+02
2.120000e-06	2.434611e-10	1.366847e-09	1.630768e+01	1.563257e+02
2.130000e-06	2.414862e-10	1.237296e-09	1.617540e+01	1.557064e+02
2.140000e-06	2.394164e-10	1.318675e-09	1.603675e+01	1.550372e+02
2.150000e-06	2.373002e-10	1.364292e-09	1.589501e+01	1.543183e+02
2.160000e-06	2.351188e-10	1.214990e-09	1.574889e+01	1.535500e+02
2.170000e-06	2.328372e-10	1.240077e-09	1.559607e+01	1.527331e+02
2.180000e-06	2.304824e-10	1.341189e-09	1.543834e+01	1.518687e+02
2.190000e-06	2.280695e-10	1.248269e-09	1.527671e+01	1.509580e+02
2.200000e-06	2.255913e-10	1.208503e-09	1.511072e+01	1.500027e+02
2.210000e-06	2.230592e-10	1.273246e-09	1.494111e+01	1.490044e+02
2.220000e-06	2.204690e-10	1.252754e-09	1.476761e+01	1.479650e+02
2.230000e-06	2.178074e-10	1.215751e-09	1.458933e+01	1.468864e+02
2.240000e-06	2.150954e-10	1.221018e-09	1.440767e+01	1.457707e+02
2.250000e-06	2.123439e-10	1.187547e-09	1.422337e+01	1.446198e+02
2.260000e-06	2.095348e-10	1.199195e-09	1.403521e+01	1.434356e+02
2.270000e-06	2.066552e-10	1.223439e-09	1.384233e+01	1.422197e+02
2.280000e-06	2.036900e-10	1.165717e-09	1.364371e+01	1.409737e+02
2.290000e-06	2.006410e-10	1.157193e-09	1.343947e+01	1.396990e+02
2.300000e-06	1.975375e-10	1.176836e-09	1.323159e+01	1.383966e+02
2.310000e-06	1.943890e-10	1.140773e-09	1.302070e+01	1.370673e+02
2.320000e-06	1.911885e-10	1.137447e-09	1.280632e+01	1.357118e+02
2.330000e-06	1.879440e-10	1.139166e-09	1.258900e+01	1.343302e+02
2.340000e-06	1.846563e-10	1.088489e-09	1.236878e+01	1.329226e+02
2.350000e-06	1.813201e-10	1.099499e-09	1.214531e+01	1.314886e+02
2.360000e-06	1.779404e-10	1.123598e-09	1.191893e+01	1.300276e+02
2.370000e-06	1.745118e-10	1.069193e-09	1.168927e+01	1.285390e+02
2.380000e-06	1.710308e-10	1.046132e-09	1.145611e+01	1.270217e+02
2.390000e-06	1.675122e-10	1.057001e-09	1.122042e+01	1.254747e+02
2.400000e-06	1.639622e-10	1.041743e-09	1.098263e+01	1.238967e+02
2.410000e-06	1.603731e-10	1.027593e-09	1.074222e+01	1.222866e+02
2.420000e-06	1.567390e-10	1.014000e-09	1.049880e+01	1.206430e+02
2.430000e-06	1.530460e-10	9.870479e-10	1.025144e+01	1.189648e+02
2.440000e-06	1.492812e-10	9.865425e-10	9.999263e+00	1.172508e+02
2.450000e-06	1.454506e-10	9.874062e-10	9.742674e+00	1.155001e+02
2.460000e-06	1.415661e-10	9.598372e-10	9.482481e+00	1.137118e+02
2.470000e-06	1.376432e-10	9.338575e-10	9.219713e+00	1.118852e+02
2.480000e-06	1.336959e-10	9.202596e-10	8.955316e+00	1.100201e+02
2.490000e-06	1.297205e-10	9.160851e-10	8.689034e+00	1.081162e+02
2.500000e-06	1.257085e-10	9.022539e-10	8.420297e+00	1.061736e+02
2.510000e-06	1.216620e-10	8.733105e-10	8.149251e+00	1.041926e+02
2.520000e-06	1.175839e-10	8.497261e-10	7.876088e+00	1.021738e+02
2.530000e-06	1.134758e-10	8.466255e-10	7.600917e+00	1.001180e+02
2.540000e-06	1.093366e-10	8.371819e-10	7.323661e+00	9.802620e+01
2.550000e-06	1.051665e-10	8.091776e-10	7.044338e+00	9.589953e+01
2.560000e-06	1.009695e-10	7.833148e-10	6.763210e+00	9.373930e+01
2.570000e-06	9.674338e-11	7.694817e-10	6.480136e+00	9.154690e+01
2.580000e-06	9.248517e-11	7.606079e-10	6.194909e+00	8.932378e+01
2.590000e-06	8.819820e-11	7.431117e-10	5.907757e+00	8.707140e+01
2.600000e-06	8.389158e-11	7.161550e-10	5.619288e+00	8.479117e+01
2.610000e-06	7.957294e-11	6.913812e-10	5.330014e+00	8.248443e+01
2.620000e-06	7.524415e-11	6.831356e-10	5.040059e+00	8.015242e+01
2.630000e-06	7.090488e-11	6.730215e-10	4.749403e+00	7.779620e+01
2.640000e-06	6.655539e-11	6.455174e-10	4.458063e+00	7.541666e+01
2.650000e-06	6.219527e-11	6.175235e-10	4.166010e+00	7.301447e+01
2.660000e-06	5.782543e-11	6.003930e-10	3.873307e+00	7.059008e+01
2.670000e-06	5.344321e-11	5.877093e-10	3.579774e+00	6.814370e+01
2.680000e-06	4.904538e-11	5.678744e-10	3.285196e+00	6.567529e+01
2.690000e-06	4.463728e-11	5.409948e-10	2.989930e+00	6.318458e+01
2.700000e-06	4.022131e-11	5.166919e-10	2.694136e+00	6.067108e+01
2.710000e-06	3.579025e-11	5.010100e-10	2.397332e+00	5.813408e+01
2.720000e-06	3.134181e-11	4.834002e-10	2.099363e+00	5.557271e+01
2.730000e-06	2.688371e-11	4.582611e-10	1.800748e+00	5.298596e+01
2.740000e-06	2.241995e-11	4.308614e-10	1.501753e+00	5.037269e+01
2.750000e-06	1.794986e-11	4.084953e-10	1.202334e+00	4.773174e+01
2.760000e-06	1.346997e-11	3.927935e-10	9.022595e-01	4.506190e+01
2.770000e-06	8.981584e-12	3.721141e-10	6.016152e-01	4.236201e+01
2.780000e-06	4.492029e-12	3.439985e-10	3.008927e-01	3.963096e+01
2.790000e-06	4.659653e-15	3.182627e-10	3.166753e-04	3.686779e+01
2.800000e-06	-4.484320e-12	2.999096e-10	-3.003672e-01	3.407171e+01
2.810000e-06	-8.977499e-12	2.800536e-10	-6.013323e-01	3.124210e+01
2.820000e-06	-1.346514e-11	2.524896e-10	-9.019268e-01	2.837863e+01
2.830000e-06	-1.794116e-11	2.215973e-10	-1.201743e+00	2.548119e+01
2.840000e-06	-2.241287e-11	1.974346e-10	-1.501269e+00	2.255002e+01
2.850000e-06	-2.688472e-11	1.788544e-10	-1.800806e+00	1.958562e+01
2.860000e-06	-3.135003e-11	1.539352e-10	-2.099905e+00	1.658885e+01
2.870000e-06	-3.579903e-11	1.220890e-10	-2.397910e+00	1.356088e+01
2.880000e-06	-4.022868e-11	9.251543e-11	-2.694621e+00	1.050321e+01
2.890000e-06	-4.464427e-11	6.977929e-11	-2.990389e+00	7.417631e+00
2.900000e-06	-4.905033e-11	4.650551e-11	-3.285518e+00	4.306258e+00
2.910000e-06	-5.344205e-11	1.779600e-11	-3.579687e+00	1.171463e+00
2.920000e-06	-5.781610e-11	-1.291950e-11	-3.872673e+00	-1.984134e+00
2.930000e-06	-6.217684e-11	-3.881628e-11	-4.164768e+00	-5.157697e+00
2.940000e-06	-6.652817e-11	-6.115233e-11	-4.456231e+00	-8.346207e+00
2.950000e-06	-7.087184e-11	-8.856466e-11	-4.747182e+00	-1.154650e+01
