# Temperatura_=_20.0
# Concentracion g/m^3_=_10000.0
# C_Vs_to_Am_M_A/Vsm_=_116720831517.84952
# pendiente_HvsI_1/m_=_3716.3
# ordenada_HvsI_A/m_=_1297.0
# frecuencia_Hz_=_268338.10341336444
# Promedio de 31 ciclos

Tiempo_(s)	Campo_(V.s)	Magnetizacion_(V.s)	Campo_(kA/m)	Magnetizacion_(A/m)
0.000000e+00	-7.182142e-10	-2.887129e-09	-4.579809e+01	-3.494768e+02
1.000000e-08	-7.180663e-10	-2.887652e-09	-4.578850e+01	-3.494407e+02
2.000000e-08	-7.177117e-10	-2.891691e-09	-4.576574e+01	-3.493134e+02
3.000000e-08	-7.171684e-10	-2.893146e-09	-4.573095e+01	-3.491073e+02
4.000000e-08	-7.164559e-10	-2.891771e-09	-4.568537e+01	-3.488425e+02
5.000000e-08	-7.155776e-10	-2.890876e-09	-4.562923e+01	-3.485438e+02
6.000000e-08	-7.144936e-10	-2.887445e-09	-4.555995e+01	-3.482352e+02
7.000000e-08	-7.131789e-10	-2.880162e-09	-4.547596e+01	-3.479355e+02
8.000000e-08	-7.116427e-10	-2.870168e-09	-4.537786e+01	-3.476537e+02
9.000000e-08	-7.098751e-10	-2.867092e-09	-4.526499e+01	-3.473866e+02
1.000000e-07	-7.078540e-10	-2.914854e-09	-4.513595e+01	-3.471187e+02
1.100000e-07	-7.055799e-10	-2.952124e-09	-4.499080e+01	-3.468241e+02
1.200000e-07	-7.031160e-10	-2.912058e-09	-4.483358e+01	-3.464704e+02
1.300000e-07	-7.005154e-10	-2.878721e-09	-4.466767e+01	-3.460244e+02
1.400000e-07	-6.978189e-10	-2.814810e-09	-4.449569e+01	-3.454574e+02
1.500000e-07	-6.949859e-10	-2.780687e-09	-4.431493e+01	-3.447501e+02
1.600000e-07	-6.919243e-10	-2.883106e-09	-4.411954e+01	-3.438957e+02
1.700000e-07	-6.886928e-10	-2.839826e-09	-4.391335e+01	-3.429008e+02
1.800000e-07	-6.852782e-10	-2.787486e-09	-4.369544e+01	-3.417841e+02
1.900000e-07	-6.816109e-10	-2.889301e-09	-4.346142e+01	-3.405726e+02
2.000000e-07	-6.777958e-10	-2.800309e-09	-4.321807e+01	-3.392970e+02
2.100000e-07	-6.738436e-10	-2.726652e-09	-4.296593e+01	-3.379867e+02
2.200000e-07	-6.697139e-10	-2.793785e-09	-4.270245e+01	-3.366647e+02
2.300000e-07	-6.653990e-10	-2.728349e-09	-4.242714e+01	-3.353451e+02
2.400000e-07	-6.608173e-10	-2.714089e-09	-4.213478e+01	-3.340313e+02
2.500000e-07	-6.560004e-10	-2.757932e-09	-4.182746e+01	-3.327171e+02
2.600000e-07	-6.509979e-10	-2.720268e-09	-4.150831e+01	-3.313888e+02
2.700000e-07	-6.457789e-10	-2.731684e-09	-4.117536e+01	-3.300291e+02
2.800000e-07	-6.403705e-10	-2.724627e-09	-4.083034e+01	-3.286206e+02
2.900000e-07	-6.347851e-10	-2.698471e-09	-4.047402e+01	-3.271495e+02
3.000000e-07	-6.290190e-10	-2.664026e-09	-4.010619e+01	-3.256074e+02
3.100000e-07	-6.230598e-10	-2.626246e-09	-3.972607e+01	-3.239923e+02
3.200000e-07	-6.168819e-10	-2.652477e-09	-3.933199e+01	-3.223076e+02
3.300000e-07	-6.105131e-10	-2.654152e-09	-3.892574e+01	-3.205606e+02
3.400000e-07	-6.039740e-10	-2.636428e-09	-3.850862e+01	-3.187595e+02
3.500000e-07	-5.972771e-10	-2.615948e-09	-3.808145e+01	-3.169114e+02
3.600000e-07	-5.904209e-10	-2.596519e-09	-3.764411e+01	-3.150199e+02
3.700000e-07	-5.833823e-10	-2.591969e-09	-3.719515e+01	-3.130847e+02
3.800000e-07	-5.761648e-10	-2.555937e-09	-3.673479e+01	-3.111015e+02
3.900000e-07	-5.687575e-10	-2.531635e-09	-3.626230e+01	-3.090634e+02
4.000000e-07	-5.611647e-10	-2.525480e-09	-3.577800e+01	-3.069627e+02
4.100000e-07	-5.534038e-10	-2.521359e-09	-3.528297e+01	-3.047932e+02
4.200000e-07	-5.454678e-10	-2.516056e-09	-3.477680e+01	-3.025513e+02
4.300000e-07	-5.373690e-10	-2.482280e-09	-3.426029e+01	-3.002372e+02
4.400000e-07	-5.291269e-10	-2.453066e-09	-3.373461e+01	-2.978549e+02
4.500000e-07	-5.207521e-10	-2.431511e-09	-3.320044e+01	-2.954105e+02
4.600000e-07	-5.122440e-10	-2.417224e-09	-3.265777e+01	-2.929110e+02
4.700000e-07	-5.036043e-10	-2.397941e-09	-3.210673e+01	-2.903621e+02
4.800000e-07	-4.948476e-10	-2.366584e-09	-3.154825e+01	-2.877663e+02
4.900000e-07	-4.859729e-10	-2.354694e-09	-3.098221e+01	-2.851218e+02
5.000000e-07	-4.769583e-10	-2.339236e-09	-3.040726e+01	-2.824226e+02
5.100000e-07	-4.677902e-10	-2.312490e-09	-2.982253e+01	-2.796588e+02
5.200000e-07	-4.584918e-10	-2.277136e-09	-2.922953e+01	-2.768186e+02
5.300000e-07	-4.490895e-10	-2.246399e-09	-2.862989e+01	-2.738899e+02
5.400000e-07	-4.395790e-10	-2.228260e-09	-2.802336e+01	-2.708625e+02
5.500000e-07	-4.299416e-10	-2.207535e-09	-2.740874e+01	-2.677295e+02
5.600000e-07	-4.201705e-10	-2.180192e-09	-2.678557e+01	-2.644881e+02
5.700000e-07	-4.102708e-10	-2.145900e-09	-2.615419e+01	-2.611396e+02
5.800000e-07	-4.002497e-10	-2.121048e-09	-2.551510e+01	-2.576882e+02
5.900000e-07	-3.901182e-10	-2.096256e-09	-2.486896e+01	-2.541394e+02
6.000000e-07	-3.798805e-10	-2.064026e-09	-2.421604e+01	-2.504988e+02
6.100000e-07	-3.695388e-10	-2.028094e-09	-2.355651e+01	-2.467697e+02
6.200000e-07	-3.590889e-10	-1.993544e-09	-2.289011e+01	-2.429528e+02
6.300000e-07	-3.485274e-10	-1.967588e-09	-2.221657e+01	-2.390453e+02
6.400000e-07	-3.378486e-10	-1.937539e-09	-2.153553e+01	-2.350419e+02
6.500000e-07	-3.270580e-10	-1.897960e-09	-2.084738e+01	-2.309357e+02
6.600000e-07	-3.161766e-10	-1.857095e-09	-2.015345e+01	-2.267196e+02
6.700000e-07	-3.052141e-10	-1.824045e-09	-1.945435e+01	-2.223879e+02
6.800000e-07	-2.941656e-10	-1.791658e-09	-1.874974e+01	-2.179369e+02
6.900000e-07	-2.830283e-10	-1.752775e-09	-1.803948e+01	-2.133659e+02
7.000000e-07	-2.718094e-10	-1.710166e-09	-1.732404e+01	-2.086764e+02
7.100000e-07	-2.605039e-10	-1.669498e-09	-1.660309e+01	-2.038712e+02
7.200000e-07	-2.491137e-10	-1.632498e-09	-1.587671e+01	-1.989535e+02
7.300000e-07	-2.376433e-10	-1.590832e-09	-1.514519e+01	-1.939248e+02
7.400000e-07	-2.260922e-10	-1.543775e-09	-1.440857e+01	-1.887846e+02
7.500000e-07	-2.144610e-10	-1.497539e-09	-1.366686e+01	-1.835287e+02
7.600000e-07	-2.027573e-10	-1.456563e-09	-1.292051e+01	-1.781501e+02
7.700000e-07	-1.909944e-10	-1.415236e-09	-1.217040e+01	-1.726391e+02
7.800000e-07	-1.791824e-10	-1.365331e-09	-1.141720e+01	-1.669850e+02
7.900000e-07	-1.673348e-10	-1.309840e-09	-1.066173e+01	-1.611769e+02
8.000000e-07	-1.554525e-10	-1.257582e-09	-9.903991e+00	-1.552055e+02
8.100000e-07	-1.435342e-10	-1.209199e-09	-9.143949e+00	-1.490636e+02
8.200000e-07	-1.315807e-10	-1.158931e-09	-8.381680e+00	-1.427474e+02
8.300000e-07	-1.195952e-10	-1.106768e-09	-7.617395e+00	-1.362556e+02
8.400000e-07	-1.075862e-10	-1.055130e-09	-6.851622e+00	-1.295893e+02
8.500000e-07	-9.555696e-11	-1.002525e-09	-6.084563e+00	-1.227507e+02
8.600000e-07	-8.350371e-11	-9.443240e-10	-5.315978e+00	-1.157425e+02
8.700000e-07	-7.142534e-11	-8.782878e-10	-4.545788e+00	-1.085668e+02
8.800000e-07	-5.932573e-11	-8.094698e-10	-3.774248e+00	-1.012248e+02
8.900000e-07	-4.720948e-11	-7.454998e-10	-3.001671e+00	-9.371651e+01
9.000000e-07	-3.508153e-11	-6.862865e-10	-2.228333e+00	-8.604159e+01
9.100000e-07	-2.294309e-11	-6.269830e-10	-1.454316e+00	-7.819964e+01
9.200000e-07	-1.079893e-11	-5.632411e-10	-6.799749e-01	-7.019120e+01
9.300000e-07	1.347473e-12	-4.972615e-10	9.451683e-02	-6.201839e+01
9.400000e-07	1.349693e-11	-4.304852e-10	8.692449e-01	-5.368537e+01
9.500000e-07	2.564948e-11	-3.579444e-10	1.644178e+00	-4.519846e+01
9.600000e-07	3.780233e-11	-2.790627e-10	2.419111e+00	-3.656583e+01
9.700000e-07	4.994667e-11	-2.004084e-10	3.193470e+00	-2.779710e+01
9.800000e-07	6.207409e-11	-1.280424e-10	3.966727e+00	-1.890278e+01
9.900000e-07	7.418278e-11	-5.829556e-11	4.738773e+00	-9.893827e+00
1.000000e-06	8.627506e-11	1.438956e-11	5.509767e+00	-7.814615e-01
1.010000e-06	9.834990e-11	9.151870e-11	6.279666e+00	8.422698e+00
1.020000e-06	1.103986e-10	1.698204e-10	7.047897e+00	1.770622e+01
1.030000e-06	1.224142e-10	2.469366e-10	7.814010e+00	2.705526e+01
1.040000e-06	1.343958e-10	3.257096e-10	8.577997e+00	3.645392e+01
1.050000e-06	1.463445e-10	4.066367e-10	9.339931e+00	4.588378e+01
1.060000e-06	1.582592e-10	4.864742e-10	1.009969e+01	5.532379e+01
1.070000e-06	1.701345e-10	5.627777e-10	1.085691e+01	6.475049e+01
1.080000e-06	1.819655e-10	6.376228e-10	1.161129e+01	7.413875e+01
1.090000e-06	1.937470e-10	7.133776e-10	1.236252e+01	8.346269e+01
1.100000e-06	2.054707e-10	7.905784e-10	1.311006e+01	9.269690e+01
1.110000e-06	2.171247e-10	8.670352e-10	1.385315e+01	1.018175e+02
1.120000e-06	2.286993e-10	9.393372e-10	1.459120e+01	1.108032e+02
1.130000e-06	2.401924e-10	1.009310e-09	1.532404e+01	1.196355e+02
1.140000e-06	2.516051e-10	1.080371e-09	1.605173e+01	1.282992e+02
1.150000e-06	2.629339e-10	1.151907e-09	1.677404e+01	1.367824e+02
1.160000e-06	2.741720e-10	1.221667e-09	1.749057e+01	1.450753e+02
1.170000e-06	2.853251e-10	1.288769e-09	1.820171e+01	1.531707e+02
1.180000e-06	2.964002e-10	1.354777e-09	1.890791e+01	1.610627e+02
1.190000e-06	3.073966e-10	1.419535e-09	1.960909e+01	1.687468e+02
1.200000e-06	3.183167e-10	1.480508e-09	2.030538e+01	1.762195e+02
1.210000e-06	3.291556e-10	1.536575e-09	2.099649e+01	1.834786e+02
1.220000e-06	3.398963e-10	1.590839e-09	2.168131e+01	1.905230e+02
1.230000e-06	3.505282e-10	1.647015e-09	2.235918e+01	1.973527e+02
1.240000e-06	3.610479e-10	1.702922e-09	2.302986e+01	2.039689e+02
1.250000e-06	3.714540e-10	1.755815e-09	2.369332e+01	2.103737e+02
1.260000e-06	3.817564e-10	1.805940e-09	2.435018e+01	2.165697e+02
1.270000e-06	3.919624e-10	1.854556e-09	2.500091e+01	2.225594e+02
1.280000e-06	4.020705e-10	1.901188e-09	2.564541e+01	2.283447e+02
1.290000e-06	4.120703e-10	1.942894e-09	2.628302e+01	2.339271e+02
1.300000e-06	4.219454e-10	1.979671e-09	2.691265e+01	2.393073e+02
1.310000e-06	4.316883e-10	2.015950e-09	2.753380e+01	2.444857e+02
1.320000e-06	4.413031e-10	2.054994e-09	2.814679e+01	2.494632e+02
1.330000e-06	4.507991e-10	2.094656e-09	2.875227e+01	2.542420e+02
1.340000e-06	4.601831e-10	2.132080e-09	2.935060e+01	2.588260e+02
1.350000e-06	4.694576e-10	2.167797e-09	2.994195e+01	2.632215e+02
1.360000e-06	4.786100e-10	2.200619e-09	3.052550e+01	2.674373e+02
1.370000e-06	4.876187e-10	2.230132e-09	3.109984e+01	2.714839e+02
1.380000e-06	4.964782e-10	2.257863e-09	3.166466e+01	2.753727e+02
1.390000e-06	5.052009e-10	2.284481e-09	3.222077e+01	2.791148e+02
1.400000e-06	5.137952e-10	2.310282e-09	3.276869e+01	2.827195e+02
1.410000e-06	5.222629e-10	2.336321e-09	3.330856e+01	2.861932e+02
1.420000e-06	5.305940e-10	2.363193e-09	3.383972e+01	2.895393e+02
1.430000e-06	5.387679e-10	2.390096e-09	3.436084e+01	2.927578e+02
1.440000e-06	5.467784e-10	2.414917e-09	3.487157e+01	2.958467e+02
1.450000e-06	5.546314e-10	2.436486e-09	3.537225e+01	2.988033e+02
1.460000e-06	5.623264e-10	2.456997e-09	3.586284e+01	3.016258e+02
1.470000e-06	5.698460e-10	2.477891e-09	3.634221e+01	3.043151e+02
1.480000e-06	5.771787e-10	2.499122e-09	3.680964e+01	3.068760e+02
1.490000e-06	5.843362e-10	2.519370e-09	3.726592e+01	3.093174e+02
1.500000e-06	5.913309e-10	2.538525e-09	3.771188e+01	3.116517e+02
1.510000e-06	5.981644e-10	2.556761e-09	3.814753e+01	3.138932e+02
1.520000e-06	6.048223e-10	2.573780e-09	3.857192e+01	3.160564e+02
1.530000e-06	6.112956e-10	2.590239e-09	3.898453e+01	3.181532e+02
1.540000e-06	6.175975e-10	2.605826e-09	3.938625e+01	3.201915e+02
1.550000e-06	6.237403e-10	2.621853e-09	3.977785e+01	3.221733e+02
1.560000e-06	6.297188e-10	2.638826e-09	4.015899e+01	3.240954e+02
1.570000e-06	6.355102e-10	2.655009e-09	4.052819e+01	3.259495e+02
1.580000e-06	6.411145e-10	2.668536e-09	4.088545e+01	3.277251e+02
1.590000e-06	6.465407e-10	2.680505e-09	4.123133e+01	3.294115e+02
1.600000e-06	6.517626e-10	2.692822e-09	4.156415e+01	3.310006e+02
1.610000e-06	6.567608e-10	2.705039e-09	4.188268e+01	3.324892e+02
1.620000e-06	6.615572e-10	2.716799e-09	4.218838e+01	3.338801e+02
1.630000e-06	6.661790e-10	2.727707e-09	4.248299e+01	3.351817e+02
1.640000e-06	6.706334e-10	2.738986e-09	4.276695e+01	3.364069e+02
1.650000e-06	6.749004e-10	2.751084e-09	4.303890e+01	3.375706e+02
1.660000e-06	6.789688e-10	2.762314e-09	4.329819e+01	3.386867e+02
1.670000e-06	6.828573e-10	2.771447e-09	4.354603e+01	3.397653e+02
1.680000e-06	6.865744e-10	2.779585e-09	4.378295e+01	3.408106e+02
1.690000e-06	6.901025e-10	2.788525e-09	4.400779e+01	3.418205e+02
1.700000e-06	6.934267e-10	2.798069e-09	4.421960e+01	3.427868e+02
1.710000e-06	6.965626e-10	2.806580e-09	4.441944e+01	3.436974e+02
1.720000e-06	6.995248e-10	2.812620e-09	4.460822e+01	3.445393e+02
1.730000e-06	7.023007e-10	2.817770e-09	4.478509e+01	3.453016e+02
1.740000e-06	7.048606e-10	2.823687e-09	4.494820e+01	3.459785e+02
1.750000e-06	7.072098e-10	2.829996e-09	4.509789e+01	3.465709e+02
1.760000e-06	7.093779e-10	2.836317e-09	4.523603e+01	3.470864e+02
1.770000e-06	7.113648e-10	2.842750e-09	4.536258e+01	3.475384e+02
1.780000e-06	7.131473e-10	2.848540e-09	4.547612e+01	3.479430e+02
1.790000e-06	7.147142e-10	2.852546e-09	4.557592e+01	3.483155e+02
1.800000e-06	7.160701e-10	2.855804e-09	4.566224e+01	3.486672e+02
1.810000e-06	7.171997e-10	2.857953e-09	4.573411e+01	3.490027e+02
1.820000e-06	7.180996e-10	2.859113e-09	4.579133e+01	3.493182e+02
1.830000e-06	7.187946e-10	2.860787e-09	4.583549e+01	3.496024e+02
1.840000e-06	7.193014e-10	2.863578e-09	4.586765e+01	3.498387e+02
1.850000e-06	7.196057e-10	2.866789e-09	4.588687e+01	3.500086e+02
1.860000e-06	7.196945e-10	2.870148e-09	4.589235e+01	3.500960e+02
1.870000e-06	7.195876e-10	2.872584e-09	4.588540e+01	3.500911e+02
1.880000e-06	7.193047e-10	2.870014e-09	4.586725e+01	3.499932e+02
1.890000e-06	7.188341e-10	2.864649e-09	4.583712e+01	3.498113e+02
1.900000e-06	7.181611e-10	2.862379e-09	4.579407e+01	3.495635e+02
1.910000e-06	7.173069e-10	2.860145e-09	4.573947e+01	3.492733e+02
1.920000e-06	7.162740e-10	2.856288e-09	4.567345e+01	3.489657e+02
1.930000e-06	7.150261e-10	2.855839e-09	4.559374e+01	3.486617e+02
1.940000e-06	7.135694e-10	2.863897e-09	4.550076e+01	3.483737e+02
1.950000e-06	7.119452e-10	2.854658e-09	4.539706e+01	3.481029e+02
1.960000e-06	7.100989e-10	2.774832e-09	4.527913e+01	3.478377e+02
1.970000e-06	7.079211e-10	2.752721e-09	4.514005e+01	3.475552e+02
1.980000e-06	7.054355e-10	2.795321e-09	4.498140e+01	3.472247e+02
1.990000e-06	7.027738e-10	2.845210e-09	4.481162e+01	3.468127e+02
2.000000e-06	7.000776e-10	2.918715e-09	4.463969e+01	3.462883e+02
2.010000e-06	6.973238e-10	2.825489e-09	4.446399e+01	3.456288e+02
2.020000e-06	6.942971e-10	2.793949e-09	4.427081e+01	3.448230e+02
2.030000e-06	6.910839e-10	2.893990e-09	4.406582e+01	3.438731e+02
2.040000e-06	6.877762e-10	2.798518e-09	4.385475e+01	3.427941e+02
2.050000e-06	6.841833e-10	2.781213e-09	4.362545e+01	3.416108e+02
2.060000e-06	6.804121e-10	2.863443e-09	4.338487e+01	3.403531e+02
2.070000e-06	6.764811e-10	2.767113e-09	4.313405e+01	3.390515e+02
2.080000e-06	6.722752e-10	2.777751e-09	4.286574e+01	3.377314e+02
2.090000e-06	6.679641e-10	2.813190e-09	4.259077e+01	3.364103e+02
2.100000e-06	6.634983e-10	2.735571e-09	4.230585e+01	3.350949e+02
2.110000e-06	6.588085e-10	2.787039e-09	4.200670e+01	3.337821e+02
2.120000e-06	6.539514e-10	2.771112e-09	4.169683e+01	3.324604e+02
2.130000e-06	6.488058e-10	2.740146e-09	4.136852e+01	3.311131e+02
2.140000e-06	6.434690e-10	2.755732e-09	4.102807e+01	3.297227e+02
2.150000e-06	6.379810e-10	2.671327e-09	4.067794e+01	3.282736e+02
2.160000e-06	6.322397e-10	2.720201e-09	4.031169e+01	3.267557e+02
2.170000e-06	6.263474e-10	2.704660e-09	3.993586e+01	3.251647e+02
2.180000e-06	6.202715e-10	2.636241e-09	3.954829e+01	3.235025e+02
2.190000e-06	6.140102e-10	2.681974e-09	3.914893e+01	3.217753e+02
2.200000e-06	6.075755e-10	2.627378e-09	3.873847e+01	3.199913e+02
2.210000e-06	6.009210e-10	2.641704e-09	3.831402e+01	3.181582e+02
2.220000e-06	5.941163e-10	2.625337e-09	3.787998e+01	3.162810e+02
2.230000e-06	5.871139e-10	2.587617e-09	3.743329e+01	3.143606e+02
2.240000e-06	5.799356e-10	2.617341e-09	3.697541e+01	3.123940e+02
2.250000e-06	5.726032e-10	2.553562e-09	3.650771e+01	3.103749e+02
2.260000e-06	5.650785e-10	2.548679e-09	3.602778e+01	3.082958e+02
2.270000e-06	5.574178e-10	2.513823e-09	3.553922e+01	3.061496e+02
2.280000e-06	5.495714e-10	2.489438e-09	3.503877e+01	3.039319e+02
2.290000e-06	5.415475e-10	2.507524e-09	3.452699e+01	3.016415e+02
2.300000e-06	5.333733e-10	2.468117e-09	3.400563e+01	2.992813e+02
2.310000e-06	5.250566e-10	2.466289e-09	3.347524e+01	2.968567e+02
2.320000e-06	5.166332e-10	2.425644e-09	3.293803e+01	2.943749e+02
2.330000e-06	5.080509e-10	2.415358e-09	3.239066e+01	2.918419e+02
2.340000e-06	4.993191e-10	2.398287e-09	3.183375e+01	2.892616e+02
2.350000e-06	4.904476e-10	2.354188e-09	3.126794e+01	2.866337e+02
2.360000e-06	4.814465e-10	2.350060e-09	3.069388e+01	2.839536e+02
2.370000e-06	4.723291e-10	2.320493e-09	3.011237e+01	2.812124e+02
2.380000e-06	4.630699e-10	2.315300e-09	2.952181e+01	2.783989e+02
2.390000e-06	4.536868e-10	2.285514e-09	2.892337e+01	2.755008e+02
2.400000e-06	4.441797e-10	2.252465e-09	2.831706e+01	2.725070e+02
2.410000e-06	4.345621e-10	2.226619e-09	2.770371e+01	2.694095e+02
2.420000e-06	4.248310e-10	2.196132e-09	2.708307e+01	2.662041e+02
2.430000e-06	4.149721e-10	2.179788e-09	2.645432e+01	2.628907e+02
2.440000e-06	4.049919e-10	2.143449e-09	2.581785e+01	2.594728e+02
2.450000e-06	3.948947e-10	2.122653e-09	2.517392e+01	2.559558e+02
2.460000e-06	3.846902e-10	2.093950e-09	2.452312e+01	2.523451e+02
2.470000e-06	3.743659e-10	2.068437e-09	2.386466e+01	2.486452e+02
2.480000e-06	3.639241e-10	2.034984e-09	2.319874e+01	2.448575e+02
2.490000e-06	3.533768e-10	1.993564e-09	2.252608e+01	2.409804e+02
2.500000e-06	3.427378e-10	1.965769e-09	2.184757e+01	2.370095e+02
2.510000e-06	3.320114e-10	1.931995e-09	2.116348e+01	2.329382e+02
2.520000e-06	3.211920e-10	1.900605e-09	2.047346e+01	2.287592e+02
2.530000e-06	3.102810e-10	1.859807e-09	1.977762e+01	2.244663e+02
2.540000e-06	2.992719e-10	1.824023e-09	1.907555e+01	2.200551e+02
2.550000e-06	2.881659e-10	1.788171e-09	1.836731e+01	2.155238e+02
2.560000e-06	2.769624e-10	1.750322e-09	1.765284e+01	2.108732e+02
2.570000e-06	2.656664e-10	1.710574e-09	1.693250e+01	2.061060e+02
2.580000e-06	2.542938e-10	1.669421e-09	1.620728e+01	2.012253e+02
2.590000e-06	2.428529e-10	1.636254e-09	1.547769e+01	1.962334e+02
2.600000e-06	2.313345e-10	1.597680e-09	1.474316e+01	1.911304e+02
2.610000e-06	2.197305e-10	1.553901e-09	1.400319e+01	1.859135e+02
2.620000e-06	2.080512e-10	1.502702e-09	1.325839e+01	1.805764e+02
2.630000e-06	1.963099e-10	1.453985e-09	1.250961e+01	1.751105e+02
2.640000e-06	1.845172e-10	1.409452e-09	1.175759e+01	1.695050e+02
2.650000e-06	1.726671e-10	1.362609e-09	1.100191e+01	1.637490e+02
2.660000e-06	1.607615e-10	1.315184e-09	1.024271e+01	1.578325e+02
2.670000e-06	1.488158e-10	1.269253e-09	9.480931e+00	1.517476e+02
2.680000e-06	1.368355e-10	1.224493e-09	8.716950e+00	1.454894e+02
2.690000e-06	1.248230e-10	1.173561e-09	7.950945e+00	1.390558e+02
2.700000e-06	1.127853e-10	1.114801e-09	7.183368e+00	1.324470e+02
2.710000e-06	1.007307e-10	1.053131e-09	6.414700e+00	1.256652e+02
2.720000e-06	8.865958e-11	9.949472e-10	5.644931e+00	1.187129e+02
2.730000e-06	7.656672e-11	9.382948e-10	4.873764e+00	1.115924e+02
2.740000e-06	6.445049e-11	8.782838e-10	4.101150e+00	1.043054e+02
2.750000e-06	5.231948e-11	8.159991e-10	3.327596e+00	9.685220e+01
2.760000e-06	4.018005e-11	7.555939e-10	2.553478e+00	8.923250e+01
2.770000e-06	2.803415e-11	6.954843e-10	1.778943e+00	8.144584e+01
2.780000e-06	1.588307e-11	6.318896e-10	1.004080e+00	7.349237e+01
2.790000e-06	3.726218e-12	5.637155e-10	2.288790e-01	6.537363e+01
2.800000e-06	-8.435783e-12	4.936827e-10	-5.466350e-01	5.709309e+01
2.810000e-06	-2.059860e-11	4.250933e-10	-1.322238e+00	4.865635e+01
2.820000e-06	-3.275649e-11	3.546878e-10	-2.097559e+00	4.007101e+01
2.830000e-06	-4.490818e-11	2.814343e-10	-2.872442e+00	3.134627e+01
2.840000e-06	-5.705032e-11	2.068624e-10	-3.646668e+00	2.249239e+01
2.850000e-06	-6.918012e-11	1.354546e-10	-4.420127e+00	1.352022e+01
2.860000e-06	-8.129503e-11	6.732678e-11	-5.192653e+00	4.440881e+00
2.870000e-06	-9.339335e-11	-4.028649e-12	-5.964088e+00	-4.734163e+00
2.880000e-06	-1.054731e-10	-7.959941e-11	-6.734303e+00	-1.399281e+01
2.890000e-06	-1.175282e-10	-1.578345e-10	-7.502956e+00	-2.332175e+01
2.900000e-06	-1.295524e-10	-2.364371e-10	-8.269667e+00	-3.270581e+01
2.910000e-06	-1.415410e-10	-3.152165e-10	-9.034110e+00	-4.212745e+01
